15deg_LD_40mA
Integration time [ms]:  10,000
Averaging Nr. [scans]: 30
Smoothing Nr. [pixels]: 0
Data measured with spectrometer [name]: 0901140U1
Wave   ;Sample   ;Dark     ;Reference;Scope
[nm]   ;[counts] ;[counts] ;[counts] 

 260,00;   Not Available
 261,00;   Not Available
 262,00;   Not Available
 263,00;   Not Available
 264,00;   Not Available
 265,00;   Not Available
 266,00;   Not Available
 267,00;   Not Available
 268,00;   Not Available
 269,00;   Not Available
 270,00;   Not Available
 271,00;   Not Available
 272,00;   Not Available
 273,00;   Not Available
 274,00;   Not Available
 275,00;   Not Available
 276,00;   Not Available
 277,00;   Not Available
 278,00;   Not Available
 279,00;   Not Available
 280,00;   Not Available
 281,00;   Not Available
 282,00;   Not Available
 283,00;   Not Available
 284,00;   Not Available
 285,00;   Not Available
 286,00;   Not Available
 287,00;   Not Available
 288,00;   Not Available
 289,00;   Not Available
 290,00;   Not Available
 291,00;   Not Available
 292,00;   Not Available
 293,00;   Not Available
 294,00;   Not Available
 295,00;   Not Available
 296,00;   Not Available
 297,00;   Not Available
 298,00;   Not Available
 299,00;   Not Available
 300,00;   Not Available
 301,00;   Not Available
 302,00;   Not Available
 303,00;   Not Available
 304,00;   Not Available
 305,00;   Not Available
 306,00;   Not Available
 307,00;   Not Available
 308,00;   Not Available
 309,00;   Not Available
 310,00;   Not Available
 311,00;   Not Available
 312,00;   Not Available
 313,00;   Not Available
 314,00;   Not Available
 315,00;   Not Available
 316,00;   Not Available
 317,00;   Not Available
 318,00;   Not Available
 319,00;   Not Available
 320,00;   Not Available
 321,00;   Not Available
 322,00;   Not Available
 323,00;   Not Available
 324,00;   Not Available
 325,00;   Not Available
 326,00;   Not Available
 327,00;   Not Available
 328,00;   Not Available
 329,00;   Not Available
 330,00;   Not Available
 331,00;   Not Available
 332,00;   Not Available
 333,00;   Not Available
 334,00;   Not Available
 335,00;   Not Available
 336,00;   Not Available
 337,00;   Not Available
 338,00;   Not Available
 339,00;   Not Available
 340,00;   Not Available
 341,00;   Not Available
 342,00;   Not Available
 343,00;   -4,196;   -0,042; 5308,653
 344,00;   -7,264;    3,248; 5435,737
 345,00;   -1,887;   -0,687; 5586,839
 346,00;  -11,620;   -1,316; 5899,019
 347,00;   -0,082;    0,583; 6169,222
 348,00;   -0,605;    4,643; 6334,159
 349,00;    4,463;    1,589; 6593,907
 350,00;    4,748;   -0,161; 6639,549
 351,00;   -7,145;   -3,740; 6811,936
 352,00;   -2,089;    4,863; 6805,536
 353,00;   -5,292;    3,098; 6722,142
 354,00;    0,213;   11,456; 6660,788
 355,00;   -3,497;   -0,317; 6859,957
 356,00;   11,131;    3,085; 7013,905
 357,00;    0,345;    1,773; 7062,159
 358,00;   -0,927;   -1,850; 7139,153
 359,00;  -12,053;    5,362; 7172,313
 360,00;    2,238;   -0,945; 7184,622
 361,00;   -1,786;    4,640; 7271,278
 362,00;   -2,012;    1,986; 7267,726
 363,00;    2,250;   -1,653; 7353,291
 364,00;   -1,082;    3,267; 7347,788
 365,00;   11,193;   -2,526; 7376,368
 366,00;   -7,642;    5,423; 7425,625
 367,00;   -2,679;    1,077; 7691,767
 368,00;   -2,697;   -0,660; 7901,408
 369,00;   -2,028;   -2,295; 7832,170
 370,00;   -5,384;    0,997; 8026,802
 371,00;   -0,362;    0,108; 7804,205
 372,00;   -7,983;   -0,688; 7872,014
 373,00;   -6,611;    1,758; 7907,641
 374,00;   11,659;    0,283; 7977,145
 375,00;    2,927;    0,361; 7791,377
 376,00;   -7,205;    1,476; 7795,045
 377,00;   -1,443;    4,076; 7797,232
 378,00;   -0,503;    4,427; 8369,540
 379,00;    7,123;    6,374; 8415,530
 380,00;    0,102;    4,474; 8362,086
 381,00;    9,486;    8,202; 8145,759
 382,00;   -1,680;    8,451; 8040,339
 383,00;    0,006;    3,121; 7942,856
 384,00;    8,886;    2,617; 7877,278
 385,00;    1,856;    1,733; 7830,965
 386,00;   -5,338;    3,665; 8065,170
 387,00;   -8,695;    7,203; 8047,448
 388,00;   -0,477;    4,292; 8521,671
 389,00;   -0,084;    3,476; 8246,824
 390,00;    0,691;   -3,709; 8205,581
 391,00;   -4,453;    0,076; 7955,041
 392,00;   -0,256;    7,527; 8241,355
 393,00;    4,340;    1,829; 8365,932
 394,00;    4,744;    9,557; 7975,822
 395,00;   -0,491;   -2,359; 8086,842
 396,00;   -1,226;    5,159; 8008,916
 397,00;  -10,815;    7,819; 8328,379
 398,00;    7,862;    0,294; 8563,734
 399,00;    1,572;    6,943; 8852,164
 400,00;    5,362;    5,366; 8319,759
 401,00;    7,713;    3,627; 7747,729
 402,00;   -0,576;    1,281; 7571,799
 403,00;    1,731;    6,363; 7412,172
 404,00;    0,621;    5,728; 7669,434
 405,00;    5,185;    1,982; 7609,302
 406,00;    5,487;    0,823; 7620,879
 407,00;    2,100;    6,431; 7442,482
 408,00;   -7,367;    2,157; 7481,070
 409,00;   -6,496;   -0,802; 7398,022
 410,00;  -12,479;    2,440; 7427,271
 411,00;    8,396;    3,476; 7405,718
 412,00;    6,878;    6,473; 7360,099
 413,00;    2,399;    2,681; 7486,115
 414,00;    3,004;    2,528; 7927,028
 415,00;    2,971;    5,374; 7686,086
 416,00;  -11,970;    0,564; 7494,637
 417,00;    5,933;    1,319; 7471,791
 418,00;   -7,082;    3,676; 7560,669
 419,00;    7,860;    4,244; 7755,964
 420,00;    8,799;    3,001; 8012,610
 421,00;    3,629;    6,532; 8465,100
 422,00;   -0,446;    6,996; 9161,408
 423,00;    6,758;   -2,817; 9191,825
 424,00;    0,033;   -0,062; 9271,484
 425,00;   12,373;    5,149; 8852,789
 426,00;    3,590;    2,015; 8801,746
 427,00;    0,535;    2,890; 8997,735
 428,00;   -2,464;    2,147; 9554,482
 429,00;   -6,627;    2,279; 9685,289
 430,00;    5,876;    6,943;10238,988
 431,00;    0,557;    2,435;10520,281
 432,00;   -4,678;    1,956; 9940,647
 433,00;   -4,572;    0,383; 9535,601
 434,00;   -2,709;    3,284; 9904,623
 435,00;    2,071;    1,111;10198,457
 436,00;   -0,131;    3,710;10046,201
 437,00;   -2,272;    2,990;10107,762
 438,00;    7,646;   -1,790;10187,177
 439,00;   -8,386;    0,801; 9930,316
 440,00;    7,574;    4,995; 9843,439
 441,00;    4,760;    4,683;10147,359
 442,00;    7,637;    1,708; 9880,016
 443,00;   -6,381;    4,022; 9609,006
 444,00;    9,569;    4,970; 8842,917
 445,00;    5,997;    3,642; 8717,773
 446,00;    3,293;    0,294; 9108,867
 447,00;    1,023;    3,214; 9446,540
 448,00;    0,909;    1,678;10103,260
 449,00;   -0,317;    4,529;10864,071
 450,00;    1,099;    0,285;11428,142
 451,00;    0,906;   -1,116;11859,538
 452,00;    2,482;    1,252;11920,851
 453,00;    0,656;    3,434;12365,451
 454,00;    1,209;   -1,505;12348,034
 455,00;   -5,855;    4,028;12907,695
 456,00;    8,787;    6,445;13043,195
 457,00;    2,335;    3,011;13154,216
 458,00;   -6,022;    3,227;13466,441
 459,00;   10,032;    1,747;13925,955
 460,00;    3,591;    2,647;13797,224
 461,00;   -4,544;    4,310;13717,760
 462,00;   -1,056;    2,955;13603,510
 463,00;    3,013;    1,672;13405,965
 464,00;    4,831;    2,324;14202,312
 465,00;    4,339;    6,023;14951,125
 466,00;    7,613;    2,250;15131,470
 467,00;   -6,137;   -3,115;14825,442
 468,00;   -3,683;    1,957;14679,288
 469,00;    1,369;   -1,137;14474,279
 470,00;    3,952;   -1,581;14051,918
 471,00;    1,145;    1,502;13976,505
 472,00;   -1,465;    1,868;14369,674
 473,00;    1,074;   -0,932;14937,848
 474,00;    6,895;    1,334;15444,499
 475,00;   -5,857;   -1,157;15589,378
 476,00;   -0,395;    6,891;16010,549
 477,00;   -1,006;   -2,285;15962,462
 478,00;   -1,537;    3,104;16332,794
 479,00;    2,647;    5,322;16686,910
 480,00;    2,036;    0,553;17099,205
 481,00;   -7,975;    5,806;17484,386
 482,00;   -9,565;    3,372;17809,137
 483,00;    2,808;    2,125;17966,667
 484,00;   -0,584;   -3,126;18556,171
 485,00;    3,846;    1,445;22468,907
 486,00;    3,098;    0,811;31549,406
 487,00;   10,164;   -1,395;31339,104
 488,00;    4,316;    6,628;20056,548
 489,00;    4,306;    3,347;18925,110
 490,00;    1,169;    5,383;19158,655
 491,00;   -6,265;    1,072;19219,379
 492,00;   -4,674;    0,479;19039,717
 493,00;   -2,784;    4,369;19073,019
 494,00;   -2,798;   -1,705;19310,317
 495,00;    3,112;   -1,691;18904,344
 496,00;    4,616;    5,041;19320,323
 497,00;   -0,907;    0,713;19521,951
 498,00;    7,274;    6,657;18975,697
 499,00;   -7,755;    0,021;19205,823
 500,00;   -6,165;   -0,637;19409,174
 501,00;   12,015;    6,167;19400,656
 502,00;    0,909;    2,731;19825,945
 503,00;    4,226;    3,819;19852,170
 504,00;   -1,701;    6,267;19545,973
 505,00;   12,453;    0,363;19039,183
 506,00;    3,436;    3,055;19003,583
 507,00;    4,780;    0,945;18811,889
 508,00;   -9,941;   -1,997;18717,782
 509,00;    2,870;   -1,410;18586,254
 510,00;   -2,874;    3,725;18561,556
 511,00;   11,945;    2,462;18666,460
 512,00;   -8,705;    1,534;18630,675
 513,00;    4,614;    9,685;18387,922
 514,00;   -0,414;    6,780;18242,142
 515,00;   14,382;    5,326;17622,089
 516,00;   -1,785;    1,225;17554,524
 517,00;   17,337;    1,162;17230,740
 518,00;   -7,272;   22,620;17035,085
 519,00;   13,566;    4,323;16742,225
 520,00;   -4,620;    3,130;16657,887
 521,00;    0,925;    8,944;16327,533
 522,00;   13,166;    7,491;16240,052
 523,00;   -1,699;   -2,718;16176,654
 524,00;   -6,684;   -4,601;16443,395
 525,00;   -5,579;    4,013;16357,991
 526,00;   -7,472;    8,007;16480,530
 527,00;    2,085;    6,683;16252,598
 528,00;   -0,796;    4,062;16653,785
 529,00;   -5,764;    4,644;16864,332
 530,00;    2,706;   -0,177;17253,771
 531,00;    0,336;   -0,185;17030,089
 532,00;   -0,037;    1,673;17490,817
 533,00;   12,083;    0,578;18275,787
 534,00;    7,537;    6,339;19191,745
 535,00;   -0,102;   -0,042;19583,412
 536,00;    4,178;   -5,456;19801,991
 537,00;   12,093;    3,493;19468,151
 538,00;    7,430;    3,718;19791,057
 539,00;   10,187;    7,833;19953,273
 540,00;   11,553;    2,284;19774,906
 541,00;    0,837;    4,635;19327,634
 542,00;   16,925;    0,439;19376,597
 543,00;   22,919;    1,270;19258,235
 544,00;    7,605;   -0,154;19421,154
 545,00;   16,830;    6,065;19569,175
 546,00;   15,987;   -1,895;19720,234
 547,00;   31,289;    0,648;19926,118
 548,00;   -7,156;    0,086;20885,498
 549,00;   10,768;   -0,038;21048,594
 550,00;    0,171;    4,478;20441,229
 551,00;   16,178;    0,368;20291,522
 552,00;   -1,243;   -0,605;20750,020
 553,00;    1,029;    6,332;21136,333
 554,00;   -1,970;    3,933;21175,515
 555,00;   -4,409;    2,375;21441,113
 556,00;   -6,336;    0,634;22267,749
 557,00;    2,896;    1,533;22532,690
 558,00;   -2,513;    4,612;23078,812
 559,00;   11,872;    3,711;23491,301
 560,00;  -12,224;   -1,764;24464,614
 561,00;   -6,692;    6,008;25434,026
 562,00;   -5,763;    2,368;25900,670
 563,00;    0,182;   -1,849;26285,369
 564,00;   -5,293;   11,938;26912,675
 565,00;    2,940;    5,430;27477,788
 566,00;   -2,795;    2,382;27874,917
 567,00;    4,235;    3,512;28666,529
 568,00;   -4,345;    2,958;29770,636
 569,00;   -0,204;   -0,522;31102,097
 570,00;   -3,127;    0,188;32978,253
 571,00;    5,142;    2,910;34369,629
 572,00;   -1,987;    3,662;35240,696
 573,00;   12,282;   -1,779;35774,339
 574,00;   -6,023;    2,880;36874,327
 575,00;   -8,628;    0,981;37501,588
 576,00;   10,435;    7,072;37331,900
 577,00;    4,178;    6,284;37778,065
 578,00;   -2,692;   -2,775;38695,355
 579,00;    4,551;    6,153;38248,724
 580,00;    1,318;    4,260;37071,396
 581,00;    5,205;    5,770;38578,649
 582,00;    8,944;    2,590;39207,020
 583,00;    0,112;    5,177;37470,977
 584,00;   31,758;    5,213;35636,726
 585,00;    3,032;    2,963;36323,937
 586,00;    0,153;    0,225;36611,662
 587,00;   -0,091;    2,959;36328,456
 588,00;    2,294;    7,420;36086,156
 589,00;    8,439;    5,812;35896,728
 590,00;    1,724;    5,054;35650,694
 591,00;   -5,123;    8,888;35815,884
 592,00;   -4,709;    6,022;36089,818
 593,00;   -2,198;   -0,248;36859,857
 594,00;   -1,014;   -1,801;36792,130
 595,00;    2,704;    3,127;36973,920
 596,00;   -0,030;    0,218;36879,888
 597,00;   -2,061;    6,610;37328,150
 598,00;  -14,450;    0,515;37101,256
 599,00;    5,858;    1,860;37353,732
 600,00;    4,790;    5,298;37386,589
 601,00;    3,157;    2,013;37851,726
 602,00;   -0,640;    0,092;36887,099
 603,00;    8,277;    0,589;37382,548
 604,00;   -8,069;    3,939;36696,808
 605,00;   -3,708;    4,699;36721,164
 606,00;   15,603;    1,771;36169,331
 607,00;    1,906;    4,815;36331,526
 608,00;   15,292;    7,694;35668,702
 609,00;    2,419;   -1,222;35820,190
 610,00;    6,311;    4,886;35288,211
 611,00;   32,184;    4,182;35331,259
 612,00;   42,670;   -0,146;34836,154
 613,00;   31,089;   -2,113;34671,862
 614,00;   10,796;    0,070;34298,335
 615,00;    5,295;    0,562;34331,296
 616,00;   12,936;    2,960;34028,695
 617,00;    5,562;    5,008;34144,864
 618,00;    8,380;    2,960;34200,385
 619,00;    3,066;    1,023;34374,462
 620,00;   -3,115;    2,619;34782,222
 621,00;    6,766;    6,023;35152,758
 622,00;    5,162;    0,418;35441,372
 623,00;   -7,780;    5,531;36021,990
 624,00;   -6,607;    0,388;36494,263
 625,00;    2,522;    6,006;36262,749
 626,00;    0,435;    1,077;36732,193
 627,00;    6,862;    5,224;36698,499
 628,00;    2,408;    0,370;37373,709
 629,00;   12,482;    9,106;37579,336
 630,00;    3,083;   -0,291;38028,031
 631,00;   11,711;    3,879;38202,109
 632,00;   13,392;    5,007;38990,489
 633,00;   -7,680;    0,551;39293,266
 634,00;   -4,624;    0,404;40032,573
 635,00;   -3,259;    3,114;40600,067
 636,00;   -5,907;    5,063;41558,948
 637,00;    3,039;    2,150;41885,449
 638,00;   -1,545;    2,875;42892,711
 639,00;    4,944;    2,905;43655,095
 640,00;   -9,907;    3,107;44176,099
 641,00;    7,131;    4,516;44978,812
 642,00;    8,922;    6,812;45765,159
 643,00;    5,257;    7,026;46324,008
 644,00;    8,494;    5,651;46714,845
 645,00;    0,616;    0,864;47229,471
 646,00;   -2,778;    0,634;47893,808
 647,00;    0,540;    2,331;48047,108
 648,00;    0,431;    3,025;48312,216
 649,00;   -5,773;    4,851;48508,625
 650,00;    6,217;    0,434;48522,038
 651,00;   -0,475;    3,312;49018,126
 652,00;   -8,886;    2,491;48531,035
 653,00;   -3,549;    0,635;48870,640
 654,00;   -2,696;    0,401;48778,588
 655,00;   -8,866;   -0,224;49845,531
 656,00;   -3,553;   -0,043;55463,470
 657,00;   -9,934;    0,637;56631,300
 658,00;    5,057;    8,040;49246,714
 659,00;  -11,516;    2,697;49158,694
 660,00;   -3,302;    2,498;48768,216
 661,00;    5,846;    4,144;48814,878
 662,00;   -2,199;    5,911;48876,194
 663,00;   -3,226;    3,329;48702,559
 664,00;    3,132;    1,404;48892,247
 665,00;   -1,054;    2,870;49183,260
 666,00;    0,463;    1,339;49689,752
 667,00;   -3,566;    2,657;49188,088
 668,00;   -2,739;    2,678;49895,399
 669,00;    6,522;    3,936;49712,233
 670,00;    0,385;    2,760;50304,498
 671,00;    4,774;    0,201;50279,333
 672,00;   -5,425;    6,155;50457,989
 673,00;   12,586;    6,194;50480,294
 674,00;   -9,861;    6,817;51278,567
 675,00;    9,454;    4,144;50519,404
 676,00;   -7,406;    4,146;51341,541
 677,00;    6,897;    5,625;50461,849
 678,00;    4,828;    1,109;50993,719
 679,00;   -5,353;    4,677;50473,464
 680,00;    0,382;    4,174;50803,425
 681,00;  -10,326;    0,235;49968,370
 682,00;    6,582;    0,662;50400,417
 683,00;  -14,708;    2,125;49930,562
 684,00;    2,988;    7,792;49692,460
 685,00;   -5,944;    3,155;49829,487
 686,00;   10,154;    5,728;49799,843
 687,00;    0,238;    2,544;50213,077
 688,00;    1,618;    5,236;49460,159
 689,00;   -9,379;    3,807;50051,820
 690,00;   -7,379;   -2,713;49086,613
 691,00;    2,155;    5,767;50208,881
 692,00;   -1,653;    8,461;49553,000
 693,00;    8,654;   -4,389;49815,210
 694,00;    4,898;   -4,831;49597,372
 695,00;   -2,334;    1,650;49860,159
 696,00;   -4,153;    0,391;49573,614
 697,00;   -6,779;    3,312;50198,054
 698,00;   -4,785;    5,182;49775,512
 699,00;   -3,266;    1,389;49993,374
 700,00;   -0,750;    5,814;50249,553
 701,00;   -7,236;   -6,151;49671,834
 702,00;   -1,162;   24,422;50178,262
 703,00;    0,834;    1,372;49507,536
 704,00;   -9,231;    2,128;49640,561
 705,00;   -2,812;    2,489;49545,116
 706,00;  -15,582;    6,002;49614,926
 707,00;   12,646;    5,496;49508,597
 708,00;   -0,299;    0,281;49185,260
 709,00;    1,391;    0,928;48762,067
 710,00;    0,689;    0,257;48784,377
 711,00;   -0,893;    2,116;48442,609
 712,00;    7,738;    2,398;48379,045
 713,00;    4,506;    3,319;48124,926
 714,00;   -6,681;    3,323;47788,560
 715,00;    4,031;    2,670;47352,499
 716,00;   -3,528;    1,001;47327,557
 717,00;    5,077;   -0,767;47075,032
 718,00;   -3,869;    4,123;46231,429
 719,00;   -0,843;    4,611;46379,970
 720,00;   -3,574;    5,204;45934,552
 721,00;   -9,679;    5,484;46184,420
 722,00;   -7,304;   -1,745;45333,735
 723,00;   -9,767;   -4,147;45312,754
 724,00;   -4,598;    1,669;45384,225
 725,00;    5,738;    3,052;45169,462
 726,00;    1,482;   -1,233;45215,307
 727,00;   -7,167;    4,459;45402,216
 728,00;   -1,610;    3,743;45198,493
 729,00;    1,211;   -0,075;45036,927
 730,00;   -7,777;    2,884;45281,836
 731,00;    7,764;    2,623;45243,883
 732,00;    0,110;    9,943;45542,623
 733,00;   -8,697;   -1,006;45407,017
 734,00;   -4,609;   -3,252;45594,318
 735,00;   -0,117;   -1,722;45662,838
 736,00;   -3,084;    6,782;45648,534
 737,00;   -0,520;    7,536;45893,661
 738,00;   -7,640;    8,522;45643,223
 739,00;   11,579;    7,767;45171,118
 740,00;   -1,109;    2,215;45144,134
 741,00;    3,535;    3,690;45207,829
 742,00;   -2,282;    4,659;45004,046
 743,00;   -2,364;    5,013;44853,548
 744,00;   -1,155;    1,821;44322,740
 745,00;   -5,141;    7,429;44563,896
 746,00;   11,052;    1,159;44189,251
 747,00;    3,520;    8,505;43951,240
 748,00;  -10,369;    7,888;43273,005
 749,00;   -3,959;    2,018;43377,164
 750,00;   -4,194;    3,416;43159,180
 751,00;    5,670;    4,206;42515,226
 752,00;   -6,769;    5,343;42079,535
 753,00;   -3,264;    5,282;41340,851
 754,00;    3,694;    2,805;41319,095
 755,00;    3,203;    3,716;40276,796
 756,00;   -2,090;    6,277;40243,016
 757,00;   -0,734;    3,754;39576,232
 758,00;  -11,407;    7,402;39704,427
 759,00;   10,217;    7,962;39000,068
 760,00;   -9,389;    0,977;38547,462
 761,00;   -2,659;    4,183;38153,991
 762,00;    0,142;    3,050;37786,002
 763,00;   -9,854;    5,642;37426,534
 764,00;    2,069;    1,250;37181,135
 765,00;    6,379;   -0,754;37171,447
 766,00;   -0,054;    5,452;36472,322
 767,00;    3,495;    4,444;36253,979
 768,00;   -0,165;    1,429;36376,863
 769,00;   -7,012;   -1,182;36175,867
 770,00;   -7,643;   -1,209;35848,783
 771,00;   -1,286;   10,193;36034,098
 772,00;   10,308;    1,801;35733,893
 773,00;   -6,420;    6,087;35890,631
 774,00;    6,913;    5,606;35598,640
 775,00;   -0,573;    1,026;35517,664
 776,00;    1,142;    6,113;35840,170
 777,00;   -8,390;    3,884;35458,882
 778,00;  -10,100;    1,515;35524,560
 779,00;   -2,116;    0,783;35476,436
 780,00;   -7,671;    4,404;35814,053
 781,00;   10,865;    3,630;35835,393
 782,00;   -4,041;   -0,328;36141,052
 783,00;   -0,628;    0,491;36275,895
 784,00;   -0,444;    7,288;36455,008
 785,00;    1,376;    1,558;36454,477
 786,00;   -0,252;    4,119;36609,201
 787,00;    2,540;    3,715;36901,355
 788,00;    2,489;    4,785;36724,684
 789,00;   -8,971;    1,940;36884,133
 790,00;   -0,777;    2,064;36639,539
 791,00;  -12,731;    5,108;37085,536
 792,00;    5,710;    6,224;36549,884
 793,00;   -2,375;    6,098;36684,174
 794,00;    4,282;    5,712;36363,303
 795,00;    1,840;   -0,945;36473,159
 796,00;  -10,476;    0,387;36404,456
 797,00;    9,412;    2,339;36042,595
 798,00;    1,780;   -3,596;35780,798
 799,00;    4,864;    4,808;35420,531
 800,00;   11,698;    4,171;35284,582
 801,00;    7,896;    5,810;34440,825
 802,00;   -9,377;   -2,867;34443,663
 803,00;   -4,902;    2,139;34307,753
 804,00;   -1,864;    2,001;34113,270
 805,00;    5,122;    2,988;33636,256
 806,00;   -5,238;   -0,298;33060,784
 807,00;    1,148;   -0,155;33033,672
 808,00;   -0,338;    4,308;32711,975
 809,00;   11,222;    8,518;32425,260
 810,00;    9,498;    3,259;32035,332
 811,00;   -4,872;    1,769;32125,824
 812,00;   12,744;    1,863;31797,090
 813,00;    4,451;    1,186;31540,208
 814,00;   -8,471;    5,133;31671,525
 815,00;    2,032;    3,829;31296,928
 816,00;   -0,954;    3,106;31108,752
 817,00;    7,161;    2,016;30605,363
 818,00;    6,373;    4,338;30997,159
 819,00;    4,846;    3,089;30405,419
 820,00;    5,299;    7,159;30148,499
 821,00;   10,715;    2,660;30164,743
 822,00;    9,241;    0,408;29768,480
 823,00;   33,563;    6,590;29524,454
 824,00;   94,163;   -2,013;29316,800
 825,00; 2085,510;    7,821;29135,353
 826,00; 4876,717;    4,077;28735,114
 827,00; 2091,004;    6,341;28999,641
 828,00;  106,965;    3,056;28742,113
 829,00;   36,681;    0,872;28675,432
 830,00;   17,661;    2,746;28333,158
 831,00;   12,210;    2,474;28399,951
 832,00;    7,577;    0,378;28376,515
 833,00;    8,295;    8,963;28079,363
 834,00;    4,274;    0,427;28282,931
 835,00;   15,509;    3,908;28028,234
 836,00;   -5,015;    0,164;28263,872
 837,00;    7,497;    4,288;27715,610
 838,00;   -6,319;    5,189;27993,888
 839,00;   -5,018;    2,788;27779,555
 840,00;   -0,100;    5,828;27701,236
 841,00;   -8,312;    1,944;27736,924
 842,00;    5,591;    1,551;27678,304
 843,00;   -5,368;    2,396;27753,145
 844,00;    4,312;    2,294;27398,003
 845,00;   -1,792;    2,821;27621,076
 846,00;   -3,657;    3,304;27366,872
 847,00;   -2,101;    1,994;27096,838
 848,00;    0,305;    5,303;27264,237
 849,00;    2,338;    3,693;26825,401
 850,00;    4,510;    3,226;26883,147
 851,00;    7,375;   -0,704;26469,412
 852,00;   -2,324;    0,601;26592,544
 853,00;    0,088;    4,262;26031,020
 854,00;   -0,569;   -0,040;26191,045
 855,00;   -3,601;    2,968;25751,538
 856,00;   -2,160;    3,760;25443,997
 857,00;   -3,328;    1,498;25275,101
 858,00;    8,108;    1,043;24925,711
 859,00;   -9,166;   -1,107;24959,569
 860,00;   -5,981;    9,451;24400,622
 861,00;   -7,902;    5,719;24441,330
 862,00;    2,533;    0,653;23886,421
 863,00;    5,162;    2,847;23555,331
 864,00;    1,084;   -0,398;23319,195
 865,00;    2,191;    3,187;22848,051
 866,00;   -0,453;    4,585;22877,885
 867,00;    6,734;    0,949;22519,785
 868,00;   -8,843;   -4,376;22195,715
 869,00;    4,017;    0,732;21534,061
 870,00;   -1,378;   -2,655;21645,564
 871,00;   -2,872;    5,622;21223,098
 872,00;    3,155;    3,223;20818,920
 873,00;   -2,076;    4,779;20710,818
 874,00;    5,933;   -0,088;20160,841
 875,00;   -4,073;    3,700;20174,218
 876,00;   -4,190;    1,890;19757,687
 877,00;   -2,477;    4,817;19629,732
 878,00;    2,829;    9,605;19354,176
 879,00;    3,706;    2,998;19113,723
 880,00;   -6,121;   -1,484;18811,927
 881,00;   -5,202;   56,385;18802,218
 882,00;   -1,045;   -2,872;18731,867
 883,00;   -1,038;    0,959;18789,016
 884,00;   -9,496;    9,259;18731,407
 885,00;   -7,753;    5,312;18705,487
 886,00;    4,036;    2,379;18851,221
 887,00;   -8,458;   -0,006;19028,694
 888,00;    7,088;    6,616;19049,508
 889,00;   -9,520;   -2,783;19456,452
 890,00;   -1,976;    2,266;19130,202
 891,00;   -6,545;    4,306;19317,597
 892,00;   -0,488;    7,445;19339,873
 893,00;   -6,190;    2,059;19376,474
 894,00;   -7,582;    7,355;19579,345
 895,00;    1,483;    3,550;19578,151
 896,00;   -9,729;    0,691;19794,546
 897,00;    2,963;    1,859;19521,503
 898,00;   -4,003;    0,633;19497,863
 899,00;  -10,242;    1,597;19606,431
 900,00;   -2,938;    4,871;19487,794
 901,00;   -8,046;    0,429;19487,021
 902,00;   -3,553;    1,193;19482,143
 903,00;    0,743;    5,184;19496,932
 904,00;    5,831;    4,196;19361,232
 905,00;    1,791;    3,040;19177,774
 906,00;   -1,358;    2,088;19183,469
 907,00;   -0,506;    0,821;18880,744
 908,00;   -2,544;    2,884;18753,880
 909,00;   -1,877;    3,956;18443,324
 910,00;   -6,338;    4,127;18496,056
 911,00;   -8,872;    0,490;18159,364
 912,00;    8,940;    3,369;18072,057
 913,00;   -2,007;   -1,364;17948,099
 914,00;   -2,937;    3,961;17512,267
 915,00;    3,216;    0,781;17686,300
 916,00;   -2,006;    1,643;17283,177
 917,00;    2,205;    4,271;17033,662
 918,00;    0,962;    0,666;16796,326
 919,00;    0,772;    2,611;16545,951
 920,00;   -0,363;    5,666;16356,050
 921,00;  -10,734;    5,856;16109,987
 922,00;   -2,475;    8,668;15895,350
 923,00;   -3,190;    2,391;15548,135
 924,00;    5,093;    3,682;15312,339
 925,00;   -4,044;    3,474;14994,079
 926,00;   -3,854;    3,483;14609,696
 927,00;   -5,207;    4,173;14447,626
 928,00;   -7,394;    4,918;13910,609
 929,00;   -3,185;    3,297;13868,985
 930,00;   -0,788;    5,804;13383,963
 931,00;    1,451;    1,265;13092,079
 932,00;   -3,899;   -2,047;12825,786
 933,00;   -1,283;    0,686;12357,902
 934,00;   -8,501;    3,707;12086,283
 935,00;    4,217;   -0,258;11287,042
 936,00;   -2,131;    0,000;10652,333
 937,00;   -8,958;    0,621; 9968,240
 938,00;    2,987;    3,722; 9160,350
 939,00;   -1,331;   -1,002; 8456,071
 940,00;   -7,176;    6,402; 7698,365
 941,00;   -6,776;    1,931; 7372,742
 942,00;   -4,569;    4,238; 7012,068
 943,00;   -9,694;    3,338; 6750,658
 944,00;   -4,604;    6,158; 6704,312
 945,00;   -5,711;    3,383; 6645,972
 946,00;  -13,375;    1,673; 6750,353
 947,00;   -3,523;    2,045; 6684,124
 948,00;   -3,598;    3,077; 6859,087
 949,00;   -4,601;   -0,724; 6905,299
 950,00;   -7,537;    4,303; 6970,891
 951,00;  -20,725;    3,734; 7242,058
 952,00;   -2,152;    1,565; 7155,168
 953,00;    4,116;    1,470; 7528,332
 954,00;   -8,619;    3,194; 7534,413
 955,00;   -1,213;    4,253; 7624,742
 956,00;   -5,453;   -3,211; 7670,394
 957,00;    5,311;    6,497; 7760,754
 958,00;   -6,479;    2,368; 7982,426
 959,00;   -8,983;   -0,842; 7792,457
 960,00;    4,548;    1,568; 7892,791
 961,00;    7,465;    3,466; 7960,323
 962,00;   -6,816;    3,733; 8009,871
 963,00;    2,598;   -1,271; 8056,483
 964,00;   -1,255;    2,504; 7940,252
 965,00;   -2,140;    0,979; 8034,092
 966,00;    1,176;    5,138; 7920,691
 967,00;   -0,542;    4,504; 7920,096
 968,00;    1,088;    1,336; 7911,080
 969,00;    1,568;    3,643; 7810,097
 970,00;   -3,448;    4,112; 7812,516
 971,00;    2,800;    0,975; 7822,167
 972,00;   -5,351;    2,244; 7703,449
 973,00;   -0,375;    3,829; 7741,144
 974,00;    4,924;    3,528; 7606,739
 975,00;    2,499;    9,840; 7616,591
 976,00;    9,080;    3,540; 7491,415
 977,00;    4,976;    1,158; 7433,090
 978,00;    3,157;    3,851; 7390,934
 979,00;    0,716;    5,284; 7234,839
 980,00;   -3,165;    3,377; 7221,538
 981,00;   -7,706;    4,103; 7101,498
 982,00;   -4,454;    5,376; 7030,563
 983,00;    0,024;    0,185; 6964,459
 984,00;   -1,424;    1,903; 6791,681
 985,00;   -6,380;   -0,735; 6884,786
 986,00;    8,863;    3,984; 6535,673
 987,00;    5,376;    4,619; 6531,601
 988,00;    3,287;    7,786; 6458,635
 989,00;   -0,048;    3,408; 6330,281
 990,00;   -6,644;    7,383; 6200,638
 991,00;    1,953;    3,803; 6044,263
 992,00;    4,064;    4,066; 5979,043
 993,00;   -0,207;    2,968; 5879,213
 994,00;    0,833;    2,697; 5837,352
 995,00;    6,494;    4,746; 5672,640
 996,00;    2,457;    4,696; 5479,321
 997,00;    6,681;    4,116; 5421,606
 998,00;   -3,563;    2,840; 5304,811
 999,00;   -2,019;   -2,846; 5076,878
1000,00;   -4,830;   -0,401; 5073,507
1001,00;    2,677;    2,413; 4934,566
1002,00;   -0,025;    2,721; 4771,740
1003,00;   -4,334;    3,193; 4659,475
1004,00;    5,867;    3,318; 4567,170
1005,00;   -3,134;    2,971; 4448,672
1006,00;   -9,693;    6,215; 4290,081
1007,00;   -1,272;    3,138; 4197,557
1008,00;   -3,488;    2,955; 4092,298
1009,00;    0,384;    5,693; 3950,825
1010,00;   -7,410;    3,239; 3976,646
1011,00;    6,809;    4,341; 3852,594
1012,00;   -9,350;    4,219; 3822,411
1013,00;    2,988;    3,989; 3796,641
1014,00;   -9,360;    1,826; 3774,270
1015,00;   -6,399;    5,844; 3813,325
1016,00;   -6,745;    6,027; 3750,420
1017,00;   -4,957;    2,137; 3730,661
1018,00;   -3,339;    0,792; 3654,573
1019,00;   -3,113;    0,720; 3574,519
1020,00;   -7,970;    6,298; 3499,290
1021,00;    5,949;    7,873; 3310,743
1022,00;   -7,398;    4,791; 3253,565
1023,00;   -5,763;    2,559; 3145,936
1024,00;    9,707;    1,850; 3073,108
1025,00;   -4,073;    0,314; 2982,295
1026,00;   -4,709;    0,408; 2842,767
1027,00;   -5,589;    3,243; 2770,938
1028,00;  -10,770;    3,014; 2630,616
1029,00;   11,571;    4,191; 2552,565
1030,00;   -7,384;    3,906; 2458,928
1031,00;   -7,614;    2,348; 2376,469
1032,00;  -10,200;   -0,189; 2339,266
1033,00;   -1,171;    1,268; 2230,116
1034,00;   -7,924;    9,510; 2165,551
1035,00;    5,651;    1,348; 2093,223
1036,00;    5,431;    3,156; 2021,790
1037,00;   -3,599;    1,820; 1948,954
1038,00;  -10,201;    3,195; 1904,856
1039,00;    4,531;    0,630; 1843,503
1040,00;   -8,405;    0,761; 1762,364
1041,00;   -4,795;    2,140; 1731,450
1042,00;   -2,034;    4,696; 1670,515
1043,00;   -0,444;    3,250; 1609,635
1044,00;   -3,391;    6,727; 1568,765
1045,00;    9,482;    5,127; 1523,020
1046,00;   -3,437;    6,818; 1478,453
1047,00;   -1,361;    1,683; 1429,356
1048,00;   -6,411;    5,404; 1394,443
1049,00;   -1,493;    4,401; 1342,936
1050,00;   -7,200;    2,565; 1315,683
1051,00;    0,531;    2,439; 1277,001
1052,00;   -2,217;    4,119; 1231,814
1053,00;   -9,982;    5,556; 1222,191
1054,00;    6,433;    4,484; 1197,243
1055,00;   -0,674;   -7,048; 1156,731
1056,00;  -10,840;   23,212; 1136,129
1057,00;   -5,403;    1,466; 1075,188
1058,00;    1,471;    1,519; 1064,890
1059,00;    5,440;   -1,981; 1025,328
1060,00;   12,778;    4,271;  991,931
1061,00;  -13,902;    4,827;  969,708
1062,00;    0,544;    5,977;  948,920
1063,00;   -7,874;    5,065;  912,247
1064,00;   -5,240;    6,614;  896,884
1065,00;    8,137;    2,581;  859,071
1066,00;   -5,113;    3,721;  850,201
1067,00;    2,575;    1,855;  833,671
1068,00;   -1,119;    4,291;  803,982
1069,00;   -0,144;    0,971;  800,529
1070,00;    4,202;   -6,648;  781,254
1071,00;    0,847;    0,465;  784,165
1072,00;    0,509;    1,958;  755,231
1073,00;   -2,190;   -1,788;  743,175
1074,00;  -10,411;    9,582;  722,567
1075,00;    1,430;    4,458;  707,139
1076,00;   -0,632;    5,820;  694,732
1077,00;   -1,457;   -1,830;  672,129
1078,00;    6,315;    7,273;  667,702
1079,00;   -0,754;    9,890;  658,769
1080,00;   -7,951;    0,934;  642,278
1081,00;   -7,230;    3,234;  627,163
1082,00;   -4,682;    5,023;  601,046
1083,00;    2,606;    1,785;  571,290
1084,00;  -11,811;    0,679;  605,954
1085,00;    0,606;    3,167;  585,327
1086,00;    3,871;    2,699;  555,308
1087,00;  -10,354;    3,714;  557,223
1088,00;   -4,588;    5,041;  527,679
1089,00;   -7,088;    1,571;  504,374
1090,00;   -5,802;    1,848;  495,711
1091,00;    9,906;   -2,199;  496,580
1092,00;   -8,645;    8,707;  484,457
1093,00;    3,273;    4,808;  462,186
1094,00;   -2,763;    2,264;  452,215
1095,00;  -13,428;    3,360;  435,345
1096,00;    4,273;    3,219;  424,386
1097,00;    0,074;    3,403;  414,662
1098,00;   -0,180;    0,315;  403,777
1099,00;   Not Available
1100,00;   Not Available

