25deg_LD_40mA
Integration time [ms]:  10,000
Averaging Nr. [scans]: 30
Smoothing Nr. [pixels]: 0
Data measured with spectrometer [name]: 0901140U1
Wave   ;Sample   ;Dark     ;Reference;Scope
[nm]   ;[counts] ;[counts] ;[counts] 

 260,00;   Not Available
 261,00;   Not Available
 262,00;   Not Available
 263,00;   Not Available
 264,00;   Not Available
 265,00;   Not Available
 266,00;   Not Available
 267,00;   Not Available
 268,00;   Not Available
 269,00;   Not Available
 270,00;   Not Available
 271,00;   Not Available
 272,00;   Not Available
 273,00;   Not Available
 274,00;   Not Available
 275,00;   Not Available
 276,00;   Not Available
 277,00;   Not Available
 278,00;   Not Available
 279,00;   Not Available
 280,00;   Not Available
 281,00;   Not Available
 282,00;   Not Available
 283,00;   Not Available
 284,00;   Not Available
 285,00;   Not Available
 286,00;   Not Available
 287,00;   Not Available
 288,00;   Not Available
 289,00;   Not Available
 290,00;   Not Available
 291,00;   Not Available
 292,00;   Not Available
 293,00;   Not Available
 294,00;   Not Available
 295,00;   Not Available
 296,00;   Not Available
 297,00;   Not Available
 298,00;   Not Available
 299,00;   Not Available
 300,00;   Not Available
 301,00;   Not Available
 302,00;   Not Available
 303,00;   Not Available
 304,00;   Not Available
 305,00;   Not Available
 306,00;   Not Available
 307,00;   Not Available
 308,00;   Not Available
 309,00;   Not Available
 310,00;   Not Available
 311,00;   Not Available
 312,00;   Not Available
 313,00;   Not Available
 314,00;   Not Available
 315,00;   Not Available
 316,00;   Not Available
 317,00;   Not Available
 318,00;   Not Available
 319,00;   Not Available
 320,00;   Not Available
 321,00;   Not Available
 322,00;   Not Available
 323,00;   Not Available
 324,00;   Not Available
 325,00;   Not Available
 326,00;   Not Available
 327,00;   Not Available
 328,00;   Not Available
 329,00;   Not Available
 330,00;   Not Available
 331,00;   Not Available
 332,00;   Not Available
 333,00;   Not Available
 334,00;   Not Available
 335,00;   Not Available
 336,00;   Not Available
 337,00;   Not Available
 338,00;   Not Available
 339,00;   Not Available
 340,00;   Not Available
 341,00;   Not Available
 342,00;   Not Available
 343,00;   -2,749;   -0,042; 5308,653
 344,00;   -9,530;    3,248; 5435,737
 345,00;    0,517;   -0,687; 5586,839
 346,00;   -6,963;   -1,316; 5899,019
 347,00;   -2,822;    0,583; 6169,222
 348,00;    3,335;    4,643; 6334,159
 349,00;    5,650;    1,589; 6593,907
 350,00;    5,268;   -0,161; 6639,549
 351,00;   -0,067;   -3,740; 6811,936
 352,00;   -7,124;    4,863; 6805,536
 353,00;    7,176;    3,098; 6722,142
 354,00;   -0,909;   11,456; 6660,788
 355,00;   -2,719;   -0,317; 6859,957
 356,00;    8,483;    3,085; 7013,905
 357,00;   -4,215;    1,773; 7062,159
 358,00;   16,804;   -1,850; 7139,153
 359,00;   -6,809;    5,362; 7172,313
 360,00;   -0,616;   -0,945; 7184,622
 361,00;  -10,461;    4,640; 7271,278
 362,00;    3,926;    1,986; 7267,726
 363,00;    3,319;   -1,653; 7353,291
 364,00;   -2,123;    3,267; 7347,788
 365,00;   -4,993;   -2,526; 7376,368
 366,00;   -1,592;    5,423; 7425,625
 367,00;    1,841;    1,077; 7691,767
 368,00;   -0,008;   -0,660; 7901,408
 369,00;    5,763;   -2,295; 7832,170
 370,00;   -8,035;    0,997; 8026,802
 371,00;  -19,695;    0,108; 7804,205
 372,00;    2,393;   -0,688; 7872,014
 373,00;   -5,077;    1,758; 7907,641
 374,00;    2,583;    0,283; 7977,145
 375,00;    3,655;    0,361; 7791,377
 376,00;    3,584;    1,476; 7795,045
 377,00;   -6,971;    4,076; 7797,232
 378,00;   -1,100;    4,427; 8369,540
 379,00;   -0,612;    6,374; 8415,530
 380,00;    5,582;    4,474; 8362,086
 381,00;   -6,497;    8,202; 8145,759
 382,00;    4,074;    8,451; 8040,339
 383,00;    7,041;    3,121; 7942,856
 384,00;    2,340;    2,617; 7877,278
 385,00;   -3,345;    1,733; 7830,965
 386,00;    5,415;    3,665; 8065,170
 387,00;   -1,897;    7,203; 8047,448
 388,00;   -0,998;    4,292; 8521,671
 389,00;   -0,887;    3,476; 8246,824
 390,00;    0,301;   -3,709; 8205,581
 391,00;  -10,131;    0,076; 7955,041
 392,00;  -10,501;    7,527; 8241,355
 393,00;   -1,652;    1,829; 8365,932
 394,00;  -14,580;    9,557; 7975,822
 395,00;    5,046;   -2,359; 8086,842
 396,00;    0,637;    5,159; 8008,916
 397,00;   -3,233;    7,819; 8328,379
 398,00;   -3,792;    0,294; 8563,734
 399,00;    1,176;    6,943; 8852,164
 400,00;   -5,471;    5,366; 8319,759
 401,00;   -1,599;    3,627; 7747,729
 402,00;   -3,752;    1,281; 7571,799
 403,00;   -3,499;    6,363; 7412,172
 404,00;    2,201;    5,728; 7669,434
 405,00;    1,868;    1,982; 7609,302
 406,00;   -5,611;    0,823; 7620,879
 407,00;   -5,236;    6,431; 7442,482
 408,00;   -1,647;    2,157; 7481,070
 409,00;   -2,292;   -0,802; 7398,022
 410,00;   -8,695;    2,440; 7427,271
 411,00;   -1,450;    3,476; 7405,718
 412,00;    0,685;    6,473; 7360,099
 413,00;    6,337;    2,681; 7486,115
 414,00;    4,181;    2,528; 7927,028
 415,00;   10,111;    5,374; 7686,086
 416,00;   -0,854;    0,564; 7494,637
 417,00;    3,267;    1,319; 7471,791
 418,00;  -12,137;    3,676; 7560,669
 419,00;   -5,722;    4,244; 7755,964
 420,00;   -1,942;    3,001; 8012,610
 421,00;    2,953;    6,532; 8465,100
 422,00;   -3,100;    6,996; 9161,408
 423,00;   -5,914;   -2,817; 9191,825
 424,00;  -14,143;   -0,062; 9271,484
 425,00;   -0,116;    5,149; 8852,789
 426,00;   -6,892;    2,015; 8801,746
 427,00;   -1,799;    2,890; 8997,735
 428,00;    4,697;    2,147; 9554,482
 429,00;   -0,844;    2,279; 9685,289
 430,00;    2,087;    6,943;10238,988
 431,00;   -3,335;    2,435;10520,281
 432,00;    0,990;    1,956; 9940,647
 433,00;   -3,668;    0,383; 9535,601
 434,00;   -1,463;    3,284; 9904,623
 435,00;    4,759;    1,111;10198,457
 436,00;    7,833;    3,710;10046,201
 437,00;   -2,981;    2,990;10107,762
 438,00;   -1,228;   -1,790;10187,177
 439,00;   -5,078;    0,801; 9930,316
 440,00;   -1,719;    4,995; 9843,439
 441,00;    4,382;    4,683;10147,359
 442,00;   -4,056;    1,708; 9880,016
 443,00;    0,208;    4,022; 9609,006
 444,00;   -5,962;    4,970; 8842,917
 445,00;    8,647;    3,642; 8717,773
 446,00;    1,472;    0,294; 9108,867
 447,00;  -11,515;    3,214; 9446,540
 448,00;   -0,244;    1,678;10103,260
 449,00;    3,718;    4,529;10864,071
 450,00;   -5,593;    0,285;11428,142
 451,00;   -9,215;   -1,116;11859,538
 452,00;    9,312;    1,252;11920,851
 453,00;   -0,081;    3,434;12365,451
 454,00;  -14,721;   -1,505;12348,034
 455,00;    2,796;    4,028;12907,695
 456,00;   -5,118;    6,445;13043,195
 457,00;    8,326;    3,011;13154,216
 458,00;   -5,395;    3,227;13466,441
 459,00;    3,692;    1,747;13925,955
 460,00;    3,090;    2,647;13797,224
 461,00;   -7,523;    4,310;13717,760
 462,00;   -3,977;    2,955;13603,510
 463,00;   -2,808;    1,672;13405,965
 464,00;   -0,876;    2,324;14202,312
 465,00;   -6,898;    6,023;14951,125
 466,00;   -1,037;    2,250;15131,470
 467,00;    5,850;   -3,115;14825,442
 468,00;   -2,240;    1,957;14679,288
 469,00;   -0,234;   -1,137;14474,279
 470,00;    7,542;   -1,581;14051,918
 471,00;  -11,862;    1,502;13976,505
 472,00;   -0,984;    1,868;14369,674
 473,00;   -2,021;   -0,932;14937,848
 474,00;    3,948;    1,334;15444,499
 475,00;   -6,294;   -1,157;15589,378
 476,00;    5,426;    6,891;16010,549
 477,00;    2,374;   -2,285;15962,462
 478,00;    1,006;    3,104;16332,794
 479,00;   -5,789;    5,322;16686,910
 480,00;   -0,764;    0,553;17099,205
 481,00;    9,753;    5,806;17484,386
 482,00;    1,082;    3,372;17809,137
 483,00;   -0,188;    2,125;17966,667
 484,00;   -4,347;   -3,126;18556,171
 485,00;    0,468;    1,445;22468,907
 486,00;    4,827;    0,811;31549,406
 487,00;   11,029;   -1,395;31339,104
 488,00;    0,797;    6,628;20056,548
 489,00;   -6,900;    3,347;18925,110
 490,00;    2,196;    5,383;19158,655
 491,00;    0,489;    1,072;19219,379
 492,00;    0,638;    0,479;19039,717
 493,00;    8,372;    4,369;19073,019
 494,00;   -3,116;   -1,705;19310,317
 495,00;    5,002;   -1,691;18904,344
 496,00;    3,683;    5,041;19320,323
 497,00;   -2,602;    0,713;19521,951
 498,00;   -8,582;    6,657;18975,697
 499,00;   13,886;    0,021;19205,823
 500,00;   -2,956;   -0,637;19409,174
 501,00;   -0,672;    6,167;19400,656
 502,00;    5,002;    2,731;19825,945
 503,00;    1,024;    3,819;19852,170
 504,00;    0,352;    6,267;19545,973
 505,00;   -2,669;    0,363;19039,183
 506,00;    1,397;    3,055;19003,583
 507,00;   -3,212;    0,945;18811,889
 508,00;  -12,602;   -1,997;18717,782
 509,00;    6,295;   -1,410;18586,254
 510,00;   -6,975;    3,725;18561,556
 511,00;    8,774;    2,462;18666,460
 512,00;   -5,851;    1,534;18630,675
 513,00;   -0,128;    9,685;18387,922
 514,00;   -1,192;    6,780;18242,142
 515,00;   -3,886;    5,326;17622,089
 516,00;   -5,364;    1,225;17554,524
 517,00;   -2,454;    1,162;17230,740
 518,00;   -5,240;   22,620;17035,085
 519,00;    5,495;    4,323;16742,225
 520,00;   -0,296;    3,130;16657,887
 521,00;   -4,228;    8,944;16327,533
 522,00;    5,632;    7,491;16240,052
 523,00;    2,497;   -2,718;16176,654
 524,00;   -4,443;   -4,601;16443,395
 525,00;   -3,461;    4,013;16357,991
 526,00;    6,031;    8,007;16480,530
 527,00;   12,200;    6,683;16252,598
 528,00;   -6,171;    4,062;16653,785
 529,00;   -8,205;    4,644;16864,332
 530,00;    2,363;   -0,177;17253,771
 531,00;    0,979;   -0,185;17030,089
 532,00;    4,854;    1,673;17490,817
 533,00;   -7,161;    0,578;18275,787
 534,00;   -0,593;    6,339;19191,745
 535,00;    4,060;   -0,042;19583,412
 536,00;   -2,405;   -5,456;19801,991
 537,00;   -5,827;    3,493;19468,151
 538,00;    3,385;    3,718;19791,057
 539,00;    0,561;    7,833;19953,273
 540,00;   12,327;    2,284;19774,906
 541,00;    7,163;    4,635;19327,634
 542,00;   32,011;    0,439;19376,597
 543,00;   16,254;    1,270;19258,235
 544,00;    7,008;   -0,154;19421,154
 545,00;   18,247;    6,065;19569,175
 546,00;   21,746;   -1,895;19720,234
 547,00;   27,290;    0,648;19926,118
 548,00;    7,724;    0,086;20885,498
 549,00;    0,982;   -0,038;21048,594
 550,00;    2,837;    4,478;20441,229
 551,00;   -3,546;    0,368;20291,522
 552,00;   -3,993;   -0,605;20750,020
 553,00;    6,437;    6,332;21136,333
 554,00;   -2,197;    3,933;21175,515
 555,00;    3,694;    2,375;21441,113
 556,00;   -7,536;    0,634;22267,749
 557,00;   -3,804;    1,533;22532,690
 558,00;    1,504;    4,612;23078,812
 559,00;    3,193;    3,711;23491,301
 560,00;  -14,668;   -1,764;24464,614
 561,00;    5,500;    6,008;25434,026
 562,00;   -7,407;    2,368;25900,670
 563,00;   -1,805;   -1,849;26285,369
 564,00;    0,423;   11,938;26912,675
 565,00;    5,672;    5,430;27477,788
 566,00;    6,453;    2,382;27874,917
 567,00;    3,290;    3,512;28666,529
 568,00;   -2,010;    2,958;29770,636
 569,00;    2,586;   -0,522;31102,097
 570,00;    6,248;    0,188;32978,253
 571,00;    5,106;    2,910;34369,629
 572,00;    1,676;    3,662;35240,696
 573,00;   -3,803;   -1,779;35774,339
 574,00;    4,494;    2,880;36874,327
 575,00;   -4,740;    0,981;37501,588
 576,00;   -8,503;    7,072;37331,900
 577,00;    0,188;    6,284;37778,065
 578,00;    5,021;   -2,775;38695,355
 579,00;    3,327;    6,153;38248,724
 580,00;    0,830;    4,260;37071,396
 581,00;   -4,532;    5,770;38578,649
 582,00;   -1,270;    2,590;39207,020
 583,00;    5,951;    5,177;37470,977
 584,00;   15,826;    5,213;35636,726
 585,00;    1,168;    2,963;36323,937
 586,00;    7,111;    0,225;36611,662
 587,00;    5,564;    2,959;36328,456
 588,00;   -0,095;    7,420;36086,156
 589,00;    8,175;    5,812;35896,728
 590,00;   13,325;    5,054;35650,694
 591,00;   -8,308;    8,888;35815,884
 592,00;    5,550;    6,022;36089,818
 593,00;   13,005;   -0,248;36859,857
 594,00;   10,230;   -1,801;36792,130
 595,00;   -1,439;    3,127;36973,920
 596,00;   -6,384;    0,218;36879,888
 597,00;   -3,785;    6,610;37328,150
 598,00;    0,914;    0,515;37101,256
 599,00;    0,294;    1,860;37353,732
 600,00;    5,123;    5,298;37386,589
 601,00;    3,745;    2,013;37851,726
 602,00;    1,390;    0,092;36887,099
 603,00;    2,956;    0,589;37382,548
 604,00;   -3,278;    3,939;36696,808
 605,00;    0,767;    4,699;36721,164
 606,00;    6,704;    1,771;36169,331
 607,00;    1,711;    4,815;36331,526
 608,00;   -3,040;    7,694;35668,702
 609,00;   -5,091;   -1,222;35820,190
 610,00;    5,205;    4,886;35288,211
 611,00;   24,793;    4,182;35331,259
 612,00;   35,990;   -0,146;34836,154
 613,00;   21,217;   -2,113;34671,862
 614,00;   22,894;    0,070;34298,335
 615,00;    4,688;    0,562;34331,296
 616,00;   10,176;    2,960;34028,695
 617,00;    0,957;    5,008;34144,864
 618,00;   -1,236;    2,960;34200,385
 619,00;    8,062;    1,023;34374,462
 620,00;   -4,358;    2,619;34782,222
 621,00;    2,263;    6,023;35152,758
 622,00;   -0,549;    0,418;35441,372
 623,00;    3,147;    5,531;36021,990
 624,00;    5,573;    0,388;36494,263
 625,00;    8,079;    6,006;36262,749
 626,00;   11,031;    1,077;36732,193
 627,00;    1,984;    5,224;36698,499
 628,00;   -9,027;    0,370;37373,709
 629,00;    2,656;    9,106;37579,336
 630,00;    8,519;   -0,291;38028,031
 631,00;    4,219;    3,879;38202,109
 632,00;    4,253;    5,007;38990,489
 633,00;   -2,188;    0,551;39293,266
 634,00;    8,846;    0,404;40032,573
 635,00;   -1,437;    3,114;40600,067
 636,00;   -4,288;    5,063;41558,948
 637,00;    8,353;    2,150;41885,449
 638,00;   -1,516;    2,875;42892,711
 639,00;    2,838;    2,905;43655,095
 640,00;    0,457;    3,107;44176,099
 641,00;   -2,005;    4,516;44978,812
 642,00;   -2,963;    6,812;45765,159
 643,00;    1,114;    7,026;46324,008
 644,00;   13,587;    5,651;46714,845
 645,00;    0,781;    0,864;47229,471
 646,00;    0,229;    0,634;47893,808
 647,00;   -3,749;    2,331;48047,108
 648,00;    0,657;    3,025;48312,216
 649,00;    2,637;    4,851;48508,625
 650,00;    4,952;    0,434;48522,038
 651,00;    2,195;    3,312;49018,126
 652,00;    1,799;    2,491;48531,035
 653,00;   -4,173;    0,635;48870,640
 654,00;    7,540;    0,401;48778,588
 655,00;   -4,317;   -0,224;49845,531
 656,00;   -2,762;   -0,043;55463,470
 657,00;   -6,664;    0,637;56631,300
 658,00;    5,622;    8,040;49246,714
 659,00;   -0,541;    2,697;49158,694
 660,00;    1,465;    2,498;48768,216
 661,00;   -3,482;    4,144;48814,878
 662,00;   -5,941;    5,911;48876,194
 663,00;    3,029;    3,329;48702,559
 664,00;   -8,225;    1,404;48892,247
 665,00;   -4,731;    2,870;49183,260
 666,00;   -1,152;    1,339;49689,752
 667,00;   -3,560;    2,657;49188,088
 668,00;   -0,026;    2,678;49895,399
 669,00;   -0,291;    3,936;49712,233
 670,00;   -5,664;    2,760;50304,498
 671,00;    4,574;    0,201;50279,333
 672,00;   -0,757;    6,155;50457,989
 673,00;   -8,497;    6,194;50480,294
 674,00;   -5,850;    6,817;51278,567
 675,00;   -5,458;    4,144;50519,404
 676,00;   -5,313;    4,146;51341,541
 677,00;    0,858;    5,625;50461,849
 678,00;    1,839;    1,109;50993,719
 679,00;    1,321;    4,677;50473,464
 680,00;    7,376;    4,174;50803,425
 681,00;    5,412;    0,235;49968,370
 682,00;   -8,152;    0,662;50400,417
 683,00;    3,908;    2,125;49930,562
 684,00;   -3,934;    7,792;49692,460
 685,00;   -4,083;    3,155;49829,487
 686,00;    4,181;    5,728;49799,843
 687,00;    0,077;    2,544;50213,077
 688,00;    4,082;    5,236;49460,159
 689,00;   -1,318;    3,807;50051,820
 690,00;    3,096;   -2,713;49086,613
 691,00;    0,105;    5,767;50208,881
 692,00;   -4,311;    8,461;49553,000
 693,00;  -10,739;   -4,389;49815,210
 694,00;    3,697;   -4,831;49597,372
 695,00;    4,715;    1,650;49860,159
 696,00;   -8,136;    0,391;49573,614
 697,00;    2,465;    3,312;50198,054
 698,00;  -10,501;    5,182;49775,512
 699,00;   -6,488;    1,389;49993,374
 700,00;   -1,326;    5,814;50249,553
 701,00;   -1,078;   -6,151;49671,834
 702,00;    5,889;   24,422;50178,262
 703,00;   -0,465;    1,372;49507,536
 704,00;  -10,852;    2,128;49640,561
 705,00;   -2,277;    2,489;49545,116
 706,00;   -1,194;    6,002;49614,926
 707,00;    3,611;    5,496;49508,597
 708,00;    0,028;    0,281;49185,260
 709,00;    0,596;    0,928;48762,067
 710,00;    3,211;    0,257;48784,377
 711,00;   -1,970;    2,116;48442,609
 712,00;   -8,525;    2,398;48379,045
 713,00;   -1,915;    3,319;48124,926
 714,00;   -8,876;    3,323;47788,560
 715,00;   -1,171;    2,670;47352,499
 716,00;   -4,957;    1,001;47327,557
 717,00;   -6,693;   -0,767;47075,032
 718,00;    0,351;    4,123;46231,429
 719,00;    6,360;    4,611;46379,970
 720,00;   -1,311;    5,204;45934,552
 721,00;    0,982;    5,484;46184,420
 722,00;   -9,146;   -1,745;45333,735
 723,00;   -4,755;   -4,147;45312,754
 724,00;    6,380;    1,669;45384,225
 725,00;   -3,741;    3,052;45169,462
 726,00;   10,986;   -1,233;45215,307
 727,00;  -13,790;    4,459;45402,216
 728,00;   -5,459;    3,743;45198,493
 729,00;   -4,134;   -0,075;45036,927
 730,00;    0,291;    2,884;45281,836
 731,00;    2,588;    2,623;45243,883
 732,00;    1,436;    9,943;45542,623
 733,00;    0,727;   -1,006;45407,017
 734,00;    8,799;   -3,252;45594,318
 735,00;    0,912;   -1,722;45662,838
 736,00;   -2,061;    6,782;45648,534
 737,00;    4,473;    7,536;45893,661
 738,00;   -3,739;    8,522;45643,223
 739,00;   -2,558;    7,767;45171,118
 740,00;   -1,192;    2,215;45144,134
 741,00;   -4,426;    3,690;45207,829
 742,00;   -1,317;    4,659;45004,046
 743,00;   -6,642;    5,013;44853,548
 744,00;    1,753;    1,821;44322,740
 745,00;   -2,737;    7,429;44563,896
 746,00;    1,375;    1,159;44189,251
 747,00;   -1,380;    8,505;43951,240
 748,00;   -0,228;    7,888;43273,005
 749,00;   -4,335;    2,018;43377,164
 750,00;   -6,477;    3,416;43159,180
 751,00;    3,732;    4,206;42515,226
 752,00;   -1,402;    5,343;42079,535
 753,00;    9,131;    5,282;41340,851
 754,00;    2,168;    2,805;41319,095
 755,00;   -1,580;    3,716;40276,796
 756,00;   -3,323;    6,277;40243,016
 757,00;    4,039;    3,754;39576,232
 758,00;   -8,781;    7,402;39704,427
 759,00;    2,416;    7,962;39000,068
 760,00;    2,192;    0,977;38547,462
 761,00;    2,650;    4,183;38153,991
 762,00;    1,292;    3,050;37786,002
 763,00;    4,424;    5,642;37426,534
 764,00;   -5,279;    1,250;37181,135
 765,00;   -5,493;   -0,754;37171,447
 766,00;    0,080;    5,452;36472,322
 767,00;   -1,397;    4,444;36253,979
 768,00;  -10,220;    1,429;36376,863
 769,00;    6,060;   -1,182;36175,867
 770,00;  -13,170;   -1,209;35848,783
 771,00;   -6,714;   10,193;36034,098
 772,00;   -0,132;    1,801;35733,893
 773,00;   -9,549;    6,087;35890,631
 774,00;    2,834;    5,606;35598,640
 775,00;    8,117;    1,026;35517,664
 776,00;    0,947;    6,113;35840,170
 777,00;   -0,544;    3,884;35458,882
 778,00;   -4,644;    1,515;35524,560
 779,00;  -12,351;    0,783;35476,436
 780,00;   -5,500;    4,404;35814,053
 781,00;   -1,039;    3,630;35835,393
 782,00;   -2,041;   -0,328;36141,052
 783,00;    1,803;    0,491;36275,895
 784,00;   -2,262;    7,288;36455,008
 785,00;    5,162;    1,558;36454,477
 786,00;   -4,939;    4,119;36609,201
 787,00;   -2,168;    3,715;36901,355
 788,00;   -0,437;    4,785;36724,684
 789,00;    0,827;    1,940;36884,133
 790,00;   -4,908;    2,064;36639,539
 791,00;   -8,049;    5,108;37085,536
 792,00;   12,972;    6,224;36549,884
 793,00;   -7,091;    6,098;36684,174
 794,00;   -4,083;    5,712;36363,303
 795,00;   -9,831;   -0,945;36473,159
 796,00;    0,022;    0,387;36404,456
 797,00;    0,539;    2,339;36042,595
 798,00;   -6,060;   -3,596;35780,798
 799,00;  -11,262;    4,808;35420,531
 800,00;   -0,406;    4,171;35284,582
 801,00;   -4,441;    5,810;34440,825
 802,00;   -4,897;   -2,867;34443,663
 803,00;    6,948;    2,139;34307,753
 804,00;    0,595;    2,001;34113,270
 805,00;    1,345;    2,988;33636,256
 806,00;   -7,825;   -0,298;33060,784
 807,00;    2,632;   -0,155;33033,672
 808,00;    8,984;    4,308;32711,975
 809,00;    2,615;    8,518;32425,260
 810,00;    5,334;    3,259;32035,332
 811,00;   -0,250;    1,769;32125,824
 812,00;    1,876;    1,863;31797,090
 813,00;   -3,210;    1,186;31540,208
 814,00;   -1,927;    5,133;31671,525
 815,00;    3,737;    3,829;31296,928
 816,00;    6,873;    3,106;31108,752
 817,00;   11,622;    2,016;30605,363
 818,00;    0,828;    4,338;30997,159
 819,00;   10,075;    3,089;30405,419
 820,00;   16,209;    7,159;30148,499
 821,00;    9,203;    2,660;30164,743
 822,00;   17,132;    0,408;29768,480
 823,00;   13,525;    6,590;29524,454
 824,00;   19,939;   -2,013;29316,800
 825,00;   31,164;    7,821;29135,353
 826,00;   61,615;    4,077;28735,114
 827,00;  851,719;    6,341;28999,641
 828,00; 3594,902;    3,056;28742,113
 829,00; 3143,722;    0,872;28675,432
 830,00;  332,353;    2,746;28333,158
 831,00;   47,116;    2,474;28399,951
 832,00;   19,557;    0,378;28376,515
 833,00;   18,837;    8,963;28079,363
 834,00;    2,905;    0,427;28282,931
 835,00;    3,098;    3,908;28028,234
 836,00;   -2,014;    0,164;28263,872
 837,00;   -2,772;    4,288;27715,610
 838,00;   -0,905;    5,189;27993,888
 839,00;   -7,145;    2,788;27779,555
 840,00;   -0,708;    5,828;27701,236
 841,00;   -6,135;    1,944;27736,924
 842,00;    0,474;    1,551;27678,304
 843,00;    3,127;    2,396;27753,145
 844,00;   -3,458;    2,294;27398,003
 845,00;  -10,226;    2,821;27621,076
 846,00;  -10,235;    3,304;27366,872
 847,00;   -6,483;    1,994;27096,838
 848,00;    3,533;    5,303;27264,237
 849,00;    3,031;    3,693;26825,401
 850,00;    0,661;    3,226;26883,147
 851,00;   11,439;   -0,704;26469,412
 852,00;   -5,329;    0,601;26592,544
 853,00;    1,161;    4,262;26031,020
 854,00;   -5,635;   -0,040;26191,045
 855,00;    0,473;    2,968;25751,538
 856,00;   -7,140;    3,760;25443,997
 857,00;    1,602;    1,498;25275,101
 858,00;    7,294;    1,043;24925,711
 859,00;    6,263;   -1,107;24959,569
 860,00;   -9,265;    9,451;24400,622
 861,00;  -11,514;    5,719;24441,330
 862,00;    6,909;    0,653;23886,421
 863,00;    0,891;    2,847;23555,331
 864,00;   -0,736;   -0,398;23319,195
 865,00;    6,799;    3,187;22848,051
 866,00;    0,471;    4,585;22877,885
 867,00;   -2,277;    0,949;22519,785
 868,00;   -6,759;   -4,376;22195,715
 869,00;   -2,723;    0,732;21534,061
 870,00;    0,955;   -2,655;21645,564
 871,00;   -0,307;    5,622;21223,098
 872,00;    0,895;    3,223;20818,920
 873,00;   -2,555;    4,779;20710,818
 874,00;   -1,541;   -0,088;20160,841
 875,00;   -5,785;    3,700;20174,218
 876,00;    0,255;    1,890;19757,687
 877,00;   -4,429;    4,817;19629,732
 878,00;   -0,482;    9,605;19354,176
 879,00;   -3,958;    2,998;19113,723
 880,00;    0,649;   -1,484;18811,927
 881,00;   -4,851;   56,385;18802,218
 882,00;    4,992;   -2,872;18731,867
 883,00;   -1,235;    0,959;18789,016
 884,00;   -1,034;    9,259;18731,407
 885,00;   -3,580;    5,312;18705,487
 886,00;   -1,774;    2,379;18851,221
 887,00;   -3,316;   -0,006;19028,694
 888,00;   -0,566;    6,616;19049,508
 889,00;    1,027;   -2,783;19456,452
 890,00;  -12,257;    2,266;19130,202
 891,00;   -2,097;    4,306;19317,597
 892,00;   -0,330;    7,445;19339,873
 893,00;  -12,454;    2,059;19376,474
 894,00;    0,855;    7,355;19579,345
 895,00;    2,990;    3,550;19578,151
 896,00;  -10,096;    0,691;19794,546
 897,00;    2,454;    1,859;19521,503
 898,00;   -6,825;    0,633;19497,863
 899,00;    4,098;    1,597;19606,431
 900,00;   -3,495;    4,871;19487,794
 901,00;    0,897;    0,429;19487,021
 902,00;   -2,503;    1,193;19482,143
 903,00;   -6,007;    5,184;19496,932
 904,00;    0,761;    4,196;19361,232
 905,00;   -1,277;    3,040;19177,774
 906,00;   -5,620;    2,088;19183,469
 907,00;    2,416;    0,821;18880,744
 908,00;   -9,647;    2,884;18753,880
 909,00;    8,584;    3,956;18443,324
 910,00;  -11,284;    4,127;18496,056
 911,00;   -3,880;    0,490;18159,364
 912,00;    3,937;    3,369;18072,057
 913,00;   -3,420;   -1,364;17948,099
 914,00;    9,917;    3,961;17512,267
 915,00;    6,629;    0,781;17686,300
 916,00;   -7,282;    1,643;17283,177
 917,00;    3,928;    4,271;17033,662
 918,00;   -2,480;    0,666;16796,326
 919,00;   -4,886;    2,611;16545,951
 920,00;   -6,032;    5,666;16356,050
 921,00;   -6,913;    5,856;16109,987
 922,00;    0,591;    8,668;15895,350
 923,00;   -5,370;    2,391;15548,135
 924,00;   -1,645;    3,682;15312,339
 925,00;    1,042;    3,474;14994,079
 926,00;    8,840;    3,483;14609,696
 927,00;    1,779;    4,173;14447,626
 928,00;   -3,461;    4,918;13910,609
 929,00;   -4,852;    3,297;13868,985
 930,00;    5,976;    5,804;13383,963
 931,00;    2,234;    1,265;13092,079
 932,00;   -6,264;   -2,047;12825,786
 933,00;    4,841;    0,686;12357,902
 934,00;   -4,935;    3,707;12086,283
 935,00;    2,103;   -0,258;11287,042
 936,00;    0,702;    0,000;10652,333
 937,00;  -10,854;    0,621; 9968,240
 938,00;   -0,703;    3,722; 9160,350
 939,00;   -5,477;   -1,002; 8456,071
 940,00;  -15,936;    6,402; 7698,365
 941,00;   -9,678;    1,931; 7372,742
 942,00;   -2,622;    4,238; 7012,068
 943,00;   -4,844;    3,338; 6750,658
 944,00;   -5,597;    6,158; 6704,312
 945,00;   -2,377;    3,383; 6645,972
 946,00;  -12,630;    1,673; 6750,353
 947,00;   -6,353;    2,045; 6684,124
 948,00;    2,780;    3,077; 6859,087
 949,00;   -4,186;   -0,724; 6905,299
 950,00;   -4,612;    4,303; 6970,891
 951,00;   -1,035;    3,734; 7242,058
 952,00;   -2,056;    1,565; 7155,168
 953,00;    3,847;    1,470; 7528,332
 954,00;   -3,428;    3,194; 7534,413
 955,00;   -0,948;    4,253; 7624,742
 956,00;    3,630;   -3,211; 7670,394
 957,00;    2,631;    6,497; 7760,754
 958,00;  -10,025;    2,368; 7982,426
 959,00;    6,093;   -0,842; 7792,457
 960,00;    1,511;    1,568; 7892,791
 961,00;    0,376;    3,466; 7960,323
 962,00;    4,008;    3,733; 8009,871
 963,00;    8,862;   -1,271; 8056,483
 964,00;   -0,968;    2,504; 7940,252
 965,00;   -4,904;    0,979; 8034,092
 966,00;   -1,655;    5,138; 7920,691
 967,00;   -4,419;    4,504; 7920,096
 968,00;   -5,704;    1,336; 7911,080
 969,00;   -1,769;    3,643; 7810,097
 970,00;    4,199;    4,112; 7812,516
 971,00;   -2,786;    0,975; 7822,167
 972,00;   -3,871;    2,244; 7703,449
 973,00;   -8,487;    3,829; 7741,144
 974,00;    0,315;    3,528; 7606,739
 975,00;    1,507;    9,840; 7616,591
 976,00;    2,374;    3,540; 7491,415
 977,00;   -4,194;    1,158; 7433,090
 978,00;   -4,819;    3,851; 7390,934
 979,00;    2,868;    5,284; 7234,839
 980,00;   -1,501;    3,377; 7221,538
 981,00;    0,787;    4,103; 7101,498
 982,00;   -4,521;    5,376; 7030,563
 983,00;   -3,377;    0,185; 6964,459
 984,00;   -3,661;    1,903; 6791,681
 985,00;    4,161;   -0,735; 6884,786
 986,00;   -2,975;    3,984; 6535,673
 987,00;   -4,163;    4,619; 6531,601
 988,00;   -6,249;    7,786; 6458,635
 989,00;   -0,129;    3,408; 6330,281
 990,00;  -10,920;    7,383; 6200,638
 991,00;   -1,909;    3,803; 6044,263
 992,00;    1,108;    4,066; 5979,043
 993,00;   -3,744;    2,968; 5879,213
 994,00;   -4,439;    2,697; 5837,352
 995,00;  -12,488;    4,746; 5672,640
 996,00;   -7,752;    4,696; 5479,321
 997,00;   -1,720;    4,116; 5421,606
 998,00;    7,614;    2,840; 5304,811
 999,00;    6,497;   -2,846; 5076,878
1000,00;    4,613;   -0,401; 5073,507
1001,00;    1,922;    2,413; 4934,566
1002,00;   -2,160;    2,721; 4771,740
1003,00;    4,335;    3,193; 4659,475
1004,00;   -1,008;    3,318; 4567,170
1005,00;    2,347;    2,971; 4448,672
1006,00;    4,979;    6,215; 4290,081
1007,00;   -0,867;    3,138; 4197,557
1008,00;   -3,331;    2,955; 4092,298
1009,00;    4,192;    5,693; 3950,825
1010,00;   -5,660;    3,239; 3976,646
1011,00;   -6,419;    4,341; 3852,594
1012,00;   -6,452;    4,219; 3822,411
1013,00;   -7,222;    3,989; 3796,641
1014,00;   -1,678;    1,826; 3774,270
1015,00;   -3,149;    5,844; 3813,325
1016,00;   -2,165;    6,027; 3750,420
1017,00;    4,106;    2,137; 3730,661
1018,00;    0,017;    0,792; 3654,573
1019,00;   -7,787;    0,720; 3574,519
1020,00;   -8,221;    6,298; 3499,290
1021,00;   -7,699;    7,873; 3310,743
1022,00;   -1,346;    4,791; 3253,565
1023,00;    1,079;    2,559; 3145,936
1024,00;   -0,443;    1,850; 3073,108
1025,00;  -10,010;    0,314; 2982,295
1026,00;   11,352;    0,408; 2842,767
1027,00;    0,454;    3,243; 2770,938
1028,00;    1,437;    3,014; 2630,616
1029,00;   -5,711;    4,191; 2552,565
1030,00;   -0,684;    3,906; 2458,928
1031,00;   -6,294;    2,348; 2376,469
1032,00;   -5,954;   -0,189; 2339,266
1033,00;    4,060;    1,268; 2230,116
1034,00;   -0,983;    9,510; 2165,551
1035,00;    2,016;    1,348; 2093,223
1036,00;   -2,365;    3,156; 2021,790
1037,00;    0,864;    1,820; 1948,954
1038,00;   -8,968;    3,195; 1904,856
1039,00;   -9,012;    0,630; 1843,503
1040,00;   -7,975;    0,761; 1762,364
1041,00;    4,292;    2,140; 1731,450
1042,00;   -4,286;    4,696; 1670,515
1043,00;    1,527;    3,250; 1609,635
1044,00;    7,039;    6,727; 1568,765
1045,00;   -3,695;    5,127; 1523,020
1046,00;    0,026;    6,818; 1478,453
1047,00;   -4,420;    1,683; 1429,356
1048,00;   -4,477;    5,404; 1394,443
1049,00;   -2,786;    4,401; 1342,936
1050,00;   -7,036;    2,565; 1315,683
1051,00;   -0,387;    2,439; 1277,001
1052,00;   -4,368;    4,119; 1231,814
1053,00;   -0,340;    5,556; 1222,191
1054,00;   11,397;    4,484; 1197,243
1055,00;   -1,785;   -7,048; 1156,731
1056,00;    0,110;   23,212; 1136,129
1057,00;    1,994;    1,466; 1075,188
1058,00;   -8,874;    1,519; 1064,890
1059,00;   -6,218;   -1,981; 1025,328
1060,00;   -5,921;    4,271;  991,931
1061,00;    4,550;    4,827;  969,708
1062,00;    6,504;    5,977;  948,920
1063,00;   -8,692;    5,065;  912,247
1064,00;    5,657;    6,614;  896,884
1065,00;   -5,483;    2,581;  859,071
1066,00;   -6,266;    3,721;  850,201
1067,00;   -1,092;    1,855;  833,671
1068,00;   -3,973;    4,291;  803,982
1069,00;    3,495;    0,971;  800,529
1070,00;  -12,051;   -6,648;  781,254
1071,00;   -9,617;    0,465;  784,165
1072,00;   -7,921;    1,958;  755,231
1073,00;    5,333;   -1,788;  743,175
1074,00;   -7,191;    9,582;  722,567
1075,00;   -6,437;    4,458;  707,139
1076,00;   -6,189;    5,820;  694,732
1077,00;    3,176;   -1,830;  672,129
1078,00;    0,434;    7,273;  667,702
1079,00;  -11,688;    9,890;  658,769
1080,00;  -10,415;    0,934;  642,278
1081,00;   -8,961;    3,234;  627,163
1082,00;   -4,308;    5,023;  601,046
1083,00;   11,716;    1,785;  571,290
1084,00;    3,933;    0,679;  605,954
1085,00;    3,470;    3,167;  585,327
1086,00;    5,528;    2,699;  555,308
1087,00;   -0,376;    3,714;  557,223
1088,00;    0,035;    5,041;  527,679
1089,00;   -1,478;    1,571;  504,374
1090,00;    1,000;    1,848;  495,711
1091,00;   -0,607;   -2,199;  496,580
1092,00;    3,404;    8,707;  484,457
1093,00;  -12,924;    4,808;  462,186
1094,00;   -4,600;    2,264;  452,215
1095,00;   -6,885;    3,360;  435,345
1096,00;   -0,095;    3,219;  424,386
1097,00;    2,242;    3,403;  414,662
1098,00;   -1,927;    0,315;  403,777
1099,00;   Not Available
1100,00;   Not Available

