
Integration time [ms]:  10,000
Averaging Nr. [scans]: 30
Smoothing Nr. [pixels]: 0
Data measured with spectrometer [name]: 0901140U1
Wave   ;Sample   ;Dark     ;Reference;Scope
[nm]   ;[counts] ;[counts] ;[counts] 

 260,00;   Not Available
 261,00;   Not Available
 262,00;   Not Available
 263,00;   Not Available
 264,00;   Not Available
 265,00;   Not Available
 266,00;   Not Available
 267,00;   Not Available
 268,00;   Not Available
 269,00;   Not Available
 270,00;   Not Available
 271,00;   Not Available
 272,00;   Not Available
 273,00;   Not Available
 274,00;   Not Available
 275,00;   Not Available
 276,00;   Not Available
 277,00;   Not Available
 278,00;   Not Available
 279,00;   Not Available
 280,00;   Not Available
 281,00;   Not Available
 282,00;   Not Available
 283,00;   Not Available
 284,00;   Not Available
 285,00;   Not Available
 286,00;   Not Available
 287,00;   Not Available
 288,00;   Not Available
 289,00;   Not Available
 290,00;   Not Available
 291,00;   Not Available
 292,00;   Not Available
 293,00;   Not Available
 294,00;   Not Available
 295,00;   Not Available
 296,00;   Not Available
 297,00;   Not Available
 298,00;   Not Available
 299,00;   Not Available
 300,00;   Not Available
 301,00;   Not Available
 302,00;   Not Available
 303,00;   Not Available
 304,00;   Not Available
 305,00;   Not Available
 306,00;   Not Available
 307,00;   Not Available
 308,00;   Not Available
 309,00;   Not Available
 310,00;   Not Available
 311,00;   Not Available
 312,00;   Not Available
 313,00;   Not Available
 314,00;   Not Available
 315,00;   Not Available
 316,00;   Not Available
 317,00;   Not Available
 318,00;   Not Available
 319,00;   Not Available
 320,00;   Not Available
 321,00;   Not Available
 322,00;   Not Available
 323,00;   Not Available
 324,00;   Not Available
 325,00;   Not Available
 326,00;   Not Available
 327,00;   Not Available
 328,00;   Not Available
 329,00;   Not Available
 330,00;   Not Available
 331,00;   Not Available
 332,00;   Not Available
 333,00;   Not Available
 334,00;   Not Available
 335,00;   Not Available
 336,00;   Not Available
 337,00;   Not Available
 338,00;   Not Available
 339,00;   Not Available
 340,00;   Not Available
 341,00;   Not Available
 342,00;   Not Available
 343,00;   -3,173;   -0,042; 5308,653
 344,00;    4,383;    3,248; 5435,737
 345,00;   -2,000;   -0,687; 5586,839
 346,00;   -0,290;   -1,316; 5899,019
 347,00;    5,423;    0,583; 6169,222
 348,00;   16,359;    4,643; 6334,159
 349,00;    8,703;    1,589; 6593,907
 350,00;   14,533;   -0,161; 6639,549
 351,00;    6,983;   -3,740; 6811,936
 352,00;    5,602;    4,863; 6805,536
 353,00;    8,467;    3,098; 6722,142
 354,00;    6,127;   11,456; 6660,788
 355,00;   -4,793;   -0,317; 6859,957
 356,00;   -2,249;    3,085; 7013,905
 357,00;    2,400;    1,773; 7062,159
 358,00;   10,354;   -1,850; 7139,153
 359,00;    8,324;    5,362; 7172,313
 360,00;    3,231;   -0,945; 7184,622
 361,00;    6,917;    4,640; 7271,278
 362,00;    4,221;    1,986; 7267,726
 363,00;    3,019;   -1,653; 7353,291
 364,00;    4,524;    3,267; 7347,788
 365,00;    6,541;   -2,526; 7376,368
 366,00;    4,386;    5,423; 7425,625
 367,00;    1,159;    1,077; 7691,767
 368,00;    3,337;   -0,660; 7901,408
 369,00;   -2,027;   -2,295; 7832,170
 370,00;    4,047;    0,997; 8026,802
 371,00;    8,505;    0,108; 7804,205
 372,00;   12,373;   -0,688; 7872,014
 373,00;    5,376;    1,758; 7907,641
 374,00;   -2,198;    0,283; 7977,145
 375,00;    2,028;    0,361; 7791,377
 376,00;   11,017;    1,476; 7795,045
 377,00;    4,129;    4,076; 7797,232
 378,00;    0,266;    4,427; 8369,540
 379,00;    3,947;    6,374; 8415,530
 380,00;    4,454;    4,474; 8362,086
 381,00;   -0,981;    8,202; 8145,759
 382,00;    3,061;    8,451; 8040,339
 383,00;    8,844;    3,121; 7942,856
 384,00;   12,110;    2,617; 7877,278
 385,00;    8,797;    1,733; 7830,965
 386,00;   12,127;    3,665; 8065,170
 387,00;    0,058;    7,203; 8047,448
 388,00;   -2,797;    4,292; 8521,671
 389,00;   13,322;    3,476; 8246,824
 390,00;    2,762;   -3,709; 8205,581
 391,00;    2,896;    0,076; 7955,041
 392,00;    4,391;    7,527; 8241,355
 393,00;   -5,808;    1,829; 8365,932
 394,00;    0,914;    9,557; 7975,822
 395,00;    7,662;   -2,359; 8086,842
 396,00;  -13,841;    5,159; 8008,916
 397,00;    2,372;    7,819; 8328,379
 398,00;    6,436;    0,294; 8563,734
 399,00;    0,098;    6,943; 8852,164
 400,00;   15,425;    5,366; 8319,759
 401,00;    3,103;    3,627; 7747,729
 402,00;    1,671;    1,281; 7571,799
 403,00;   13,506;    6,363; 7412,172
 404,00;    7,807;    5,728; 7669,434
 405,00;    2,504;    1,982; 7609,302
 406,00;   -0,451;    0,823; 7620,879
 407,00;    4,966;    6,431; 7442,482
 408,00;    2,418;    2,157; 7481,070
 409,00;    0,400;   -0,802; 7398,022
 410,00;    8,551;    2,440; 7427,271
 411,00;    7,869;    3,476; 7405,718
 412,00;   15,695;    6,473; 7360,099
 413,00;   19,133;    2,681; 7486,115
 414,00;   -0,684;    2,528; 7927,028
 415,00;   -6,330;    5,374; 7686,086
 416,00;   -2,722;    0,564; 7494,637
 417,00;    7,768;    1,319; 7471,791
 418,00;    0,223;    3,676; 7560,669
 419,00;    6,718;    4,244; 7755,964
 420,00;   20,157;    3,001; 8012,610
 421,00;   12,224;    6,532; 8465,100
 422,00;   20,450;    6,996; 9161,408
 423,00;   13,314;   -2,817; 9191,825
 424,00;    7,273;   -0,062; 9271,484
 425,00;   23,848;    5,149; 8852,789
 426,00;    4,716;    2,015; 8801,746
 427,00;   14,014;    2,890; 8997,735
 428,00;   19,770;    2,147; 9554,482
 429,00;   24,664;    2,279; 9685,289
 430,00;   25,151;    6,943;10238,988
 431,00;   20,094;    2,435;10520,281
 432,00;   29,809;    1,956; 9940,647
 433,00;   33,815;    0,383; 9535,601
 434,00;   43,528;    3,284; 9904,623
 435,00;   58,082;    1,111;10198,457
 436,00;   62,199;    3,710;10046,201
 437,00;   70,653;    2,990;10107,762
 438,00;   89,275;   -1,790;10187,177
 439,00;   97,878;    0,801; 9930,316
 440,00;  100,253;    4,995; 9843,439
 441,00;  128,645;    4,683;10147,359
 442,00;  147,014;    1,708; 9880,016
 443,00;  184,486;    4,022; 9609,006
 444,00;  188,933;    4,970; 8842,917
 445,00;  240,321;    3,642; 8717,773
 446,00;  276,923;    0,294; 9108,867
 447,00;  294,411;    3,214; 9446,540
 448,00;  370,831;    1,678;10103,260
 449,00;  424,839;    4,529;10864,071
 450,00;  466,437;    0,285;11428,142
 451,00;  536,552;   -1,116;11859,538
 452,00;  629,472;    1,252;11920,851
 453,00;  767,534;    3,434;12365,451
 454,00;  878,097;   -1,505;12348,034
 455,00; 1068,343;    4,028;12907,695
 456,00; 1234,139;    6,445;13043,195
 457,00; 1409,687;    3,011;13154,216
 458,00; 1516,998;    3,227;13466,441
 459,00; 1774,825;    1,747;13925,955
 460,00; 1995,073;    2,647;13797,224
 461,00; 2241,242;    4,310;13717,760
 462,00; 2497,495;    2,955;13603,510
 463,00; 2568,303;    1,672;13405,965
 464,00; 2875,127;    2,324;14202,312
 465,00; 3014,740;    6,023;14951,125
 466,00; 3183,956;    2,250;15131,470
 467,00; 3295,282;   -3,115;14825,442
 468,00; 3435,901;    1,957;14679,288
 469,00; 3315,922;   -1,137;14474,279
 470,00; 3279,411;   -1,581;14051,918
 471,00; 3211,910;    1,502;13976,505
 472,00; 3133,368;    1,868;14369,674
 473,00; 2966,784;   -0,932;14937,848
 474,00; 2988,043;    1,334;15444,499
 475,00; 2815,883;   -1,157;15589,378
 476,00; 2717,985;    6,891;16010,549
 477,00; 2544,405;   -2,285;15962,462
 478,00; 2432,268;    3,104;16332,794
 479,00; 2423,119;    5,322;16686,910
 480,00; 2231,173;    0,553;17099,205
 481,00; 2150,689;    5,806;17484,386
 482,00; 2073,258;    3,372;17809,137
 483,00; 1983,552;    2,125;17966,667
 484,00; 1874,854;   -3,126;18556,171
 485,00; 1787,837;    1,445;22468,907
 486,00; 1685,611;    0,811;31549,406
 487,00; 1577,043;   -1,395;31339,104
 488,00; 1447,999;    6,628;20056,548
 489,00; 1345,662;    3,347;18925,110
 490,00; 1240,444;    5,383;19158,655
 491,00; 1178,987;    1,072;19219,379
 492,00; 1085,664;    0,479;19039,717
 493,00;  980,077;    4,369;19073,019
 494,00;  891,459;   -1,705;19310,317
 495,00;  792,082;   -1,691;18904,344
 496,00;  751,543;    5,041;19320,323
 497,00;  688,266;    0,713;19521,951
 498,00;  657,692;    6,657;18975,697
 499,00;  588,485;    0,021;19205,823
 500,00;  523,888;   -0,637;19409,174
 501,00;  494,639;    6,167;19400,656
 502,00;  466,805;    2,731;19825,945
 503,00;  410,222;    3,819;19852,170
 504,00;  393,956;    6,267;19545,973
 505,00;  351,232;    0,363;19039,183
 506,00;  323,606;    3,055;19003,583
 507,00;  283,801;    0,945;18811,889
 508,00;  249,498;   -1,997;18717,782
 509,00;  237,601;   -1,410;18586,254
 510,00;  222,030;    3,725;18561,556
 511,00;  198,362;    2,462;18666,460
 512,00;  174,177;    1,534;18630,675
 513,00;  162,419;    9,685;18387,922
 514,00;  150,269;    6,780;18242,142
 515,00;  137,418;    5,326;17622,089
 516,00;  116,658;    1,225;17554,524
 517,00;  123,113;    1,162;17230,740
 518,00;  106,149;   22,620;17035,085
 519,00;   99,414;    4,323;16742,225
 520,00;   87,422;    3,130;16657,887
 521,00;   76,613;    8,944;16327,533
 522,00;   86,179;    7,491;16240,052
 523,00;   67,836;   -2,718;16176,654
 524,00;   82,661;   -4,601;16443,395
 525,00;   59,730;    4,013;16357,991
 526,00;   70,596;    8,007;16480,530
 527,00;   71,279;    6,683;16252,598
 528,00;   52,019;    4,062;16653,785
 529,00;   42,388;    4,644;16864,332
 530,00;   49,060;   -0,177;17253,771
 531,00;   48,560;   -0,185;17030,089
 532,00;   38,396;    1,673;17490,817
 533,00;   26,259;    0,578;18275,787
 534,00;   36,559;    6,339;19191,745
 535,00;   36,173;   -0,042;19583,412
 536,00;   30,895;   -5,456;19801,991
 537,00;   27,515;    3,493;19468,151
 538,00;   37,036;    3,718;19791,057
 539,00;   31,655;    7,833;19953,273
 540,00;   24,231;    2,284;19774,906
 541,00;   25,527;    4,635;19327,634
 542,00;   45,691;    0,439;19376,597
 543,00;   34,199;    1,270;19258,235
 544,00;   32,309;   -0,154;19421,154
 545,00;   30,983;    6,065;19569,175
 546,00;   40,071;   -1,895;19720,234
 547,00;   43,420;    0,648;19926,118
 548,00;   15,450;    0,086;20885,498
 549,00;   19,947;   -0,038;21048,594
 550,00;   20,934;    4,478;20441,229
 551,00;    1,911;    0,368;20291,522
 552,00;   19,993;   -0,605;20750,020
 553,00;   15,759;    6,332;21136,333
 554,00;   11,389;    3,933;21175,515
 555,00;   15,309;    2,375;21441,113
 556,00;    9,852;    0,634;22267,749
 557,00;   11,204;    1,533;22532,690
 558,00;    3,427;    4,612;23078,812
 559,00;    6,562;    3,711;23491,301
 560,00;    4,676;   -1,764;24464,614
 561,00;   23,785;    6,008;25434,026
 562,00;   12,734;    2,368;25900,670
 563,00;   12,876;   -1,849;26285,369
 564,00;   21,345;   11,938;26912,675
 565,00;    9,821;    5,430;27477,788
 566,00;   12,711;    2,382;27874,917
 567,00;   10,699;    3,512;28666,529
 568,00;    9,921;    2,958;29770,636
 569,00;    7,073;   -0,522;31102,097
 570,00;   11,876;    0,188;32978,253
 571,00;    8,700;    2,910;34369,629
 572,00;   10,238;    3,662;35240,696
 573,00;   11,005;   -1,779;35774,339
 574,00;    9,387;    2,880;36874,327
 575,00;    8,861;    0,981;37501,588
 576,00;   16,925;    7,072;37331,900
 577,00;   14,312;    6,284;37778,065
 578,00;   17,083;   -2,775;38695,355
 579,00;    9,306;    6,153;38248,724
 580,00;   10,921;    4,260;37071,396
 581,00;    9,033;    5,770;38578,649
 582,00;    6,348;    2,590;39207,020
 583,00;    8,062;    5,177;37470,977
 584,00;   26,066;    5,213;35636,726
 585,00;   12,790;    2,963;36323,937
 586,00;   19,013;    0,225;36611,662
 587,00;   11,056;    2,959;36328,456
 588,00;    7,207;    7,420;36086,156
 589,00;    8,348;    5,812;35896,728
 590,00;    6,464;    5,054;35650,694
 591,00;   16,240;    8,888;35815,884
 592,00;    8,694;    6,022;36089,818
 593,00;   19,179;   -0,248;36859,857
 594,00;   11,420;   -1,801;36792,130
 595,00;   14,298;    3,127;36973,920
 596,00;    6,804;    0,218;36879,888
 597,00;   13,605;    6,610;37328,150
 598,00;    7,652;    0,515;37101,256
 599,00;   16,201;    1,860;37353,732
 600,00;    1,590;    5,298;37386,589
 601,00;   12,362;    2,013;37851,726
 602,00;   14,489;    0,092;36887,099
 603,00;    5,981;    0,589;37382,548
 604,00;    5,426;    3,939;36696,808
 605,00;   -0,505;    4,699;36721,164
 606,00;   -1,272;    1,771;36169,331
 607,00;    7,921;    4,815;36331,526
 608,00;    5,390;    7,694;35668,702
 609,00;   10,810;   -1,222;35820,190
 610,00;   16,633;    4,886;35288,211
 611,00;   24,703;    4,182;35331,259
 612,00;   37,902;   -0,146;34836,154
 613,00;   26,485;   -2,113;34671,862
 614,00;   11,090;    0,070;34298,335
 615,00;   10,734;    0,562;34331,296
 616,00;    9,419;    2,960;34028,695
 617,00;    8,690;    5,008;34144,864
 618,00;    6,119;    2,960;34200,385
 619,00;    2,837;    1,023;34374,462
 620,00;    9,602;    2,619;34782,222
 621,00;    8,500;    6,023;35152,758
 622,00;   12,220;    0,418;35441,372
 623,00;    0,324;    5,531;36021,990
 624,00;   17,015;    0,388;36494,263
 625,00;    2,145;    6,006;36262,749
 626,00;   13,069;    1,077;36732,193
 627,00;   -0,004;    5,224;36698,499
 628,00;    3,853;    0,370;37373,709
 629,00;   15,136;    9,106;37579,336
 630,00;    9,009;   -0,291;38028,031
 631,00;   16,496;    3,879;38202,109
 632,00;    6,425;    5,007;38990,489
 633,00;   13,706;    0,551;39293,266
 634,00;    6,643;    0,404;40032,573
 635,00;   -5,465;    3,114;40600,067
 636,00;   10,161;    5,063;41558,948
 637,00;   -0,047;    2,150;41885,449
 638,00;   -0,624;    2,875;42892,711
 639,00;   10,534;    2,905;43655,095
 640,00;    7,704;    3,107;44176,099
 641,00;    3,402;    4,516;44978,812
 642,00;   -6,040;    6,812;45765,159
 643,00;    7,819;    7,026;46324,008
 644,00;    7,346;    5,651;46714,845
 645,00;   -2,306;    0,864;47229,471
 646,00;    0,364;    0,634;47893,808
 647,00;    6,143;    2,331;48047,108
 648,00;   -4,294;    3,025;48312,216
 649,00;    1,897;    4,851;48508,625
 650,00;    3,367;    0,434;48522,038
 651,00;   -2,617;    3,312;49018,126
 652,00;   11,115;    2,491;48531,035
 653,00;    2,533;    0,635;48870,640
 654,00;   12,220;    0,401;48778,588
 655,00;   13,145;   -0,224;49845,531
 656,00;   -2,604;   -0,043;55463,470
 657,00;   -5,904;    0,637;56631,300
 658,00;   11,984;    8,040;49246,714
 659,00;   -5,880;    2,697;49158,694
 660,00;    5,038;    2,498;48768,216
 661,00;    1,606;    4,144;48814,878
 662,00;   -3,436;    5,911;48876,194
 663,00;   11,775;    3,329;48702,559
 664,00;   -2,555;    1,404;48892,247
 665,00;    6,481;    2,870;49183,260
 666,00;    1,967;    1,339;49689,752
 667,00;    5,056;    2,657;49188,088
 668,00;    3,353;    2,678;49895,399
 669,00;    0,023;    3,936;49712,233
 670,00;   -2,032;    2,760;50304,498
 671,00;   -7,982;    0,201;50279,333
 672,00;   -0,375;    6,155;50457,989
 673,00;   -4,172;    6,194;50480,294
 674,00;   11,782;    6,817;51278,567
 675,00;    2,009;    4,144;50519,404
 676,00;    0,371;    4,146;51341,541
 677,00;   -1,683;    5,625;50461,849
 678,00;    3,865;    1,109;50993,719
 679,00;    9,539;    4,677;50473,464
 680,00;   10,647;    4,174;50803,425
 681,00;   14,085;    0,235;49968,370
 682,00;    3,290;    0,662;50400,417
 683,00;   -3,387;    2,125;49930,562
 684,00;   -0,220;    7,792;49692,460
 685,00;   -0,875;    3,155;49829,487
 686,00;   -0,240;    5,728;49799,843
 687,00;    0,812;    2,544;50213,077
 688,00;    9,832;    5,236;49460,159
 689,00;   11,600;    3,807;50051,820
 690,00;   -3,626;   -2,713;49086,613
 691,00;    1,314;    5,767;50208,881
 692,00;   -9,013;    8,461;49553,000
 693,00;   -1,738;   -4,389;49815,210
 694,00;   -3,090;   -4,831;49597,372
 695,00;    5,494;    1,650;49860,159
 696,00;    7,652;    0,391;49573,614
 697,00;    3,406;    3,312;50198,054
 698,00;    3,787;    5,182;49775,512
 699,00;    6,139;    1,389;49993,374
 700,00;    2,046;    5,814;50249,553
 701,00;    7,336;   -6,151;49671,834
 702,00;   10,772;   24,422;50178,262
 703,00;   -2,536;    1,372;49507,536
 704,00;   -1,300;    2,128;49640,561
 705,00;    5,504;    2,489;49545,116
 706,00;    5,863;    6,002;49614,926
 707,00;    6,320;    5,496;49508,597
 708,00;   15,039;    0,281;49185,260
 709,00;   -6,366;    0,928;48762,067
 710,00;    5,142;    0,257;48784,377
 711,00;   -1,678;    2,116;48442,609
 712,00;    5,636;    2,398;48379,045
 713,00;    6,128;    3,319;48124,926
 714,00;    1,159;    3,323;47788,560
 715,00;    2,512;    2,670;47352,499
 716,00;    1,620;    1,001;47327,557
 717,00;    3,625;   -0,767;47075,032
 718,00;   -0,970;    4,123;46231,429
 719,00;    3,986;    4,611;46379,970
 720,00;   -5,639;    5,204;45934,552
 721,00;    5,604;    5,484;46184,420
 722,00;    3,795;   -1,745;45333,735
 723,00;    6,217;   -4,147;45312,754
 724,00;   -0,642;    1,669;45384,225
 725,00;   -1,809;    3,052;45169,462
 726,00;   -2,701;   -1,233;45215,307
 727,00;    7,045;    4,459;45402,216
 728,00;    3,508;    3,743;45198,493
 729,00;    3,494;   -0,075;45036,927
 730,00;   -3,101;    2,884;45281,836
 731,00;   -2,650;    2,623;45243,883
 732,00;   -2,152;    9,943;45542,623
 733,00;    8,021;   -1,006;45407,017
 734,00;    5,579;   -3,252;45594,318
 735,00;   -3,542;   -1,722;45662,838
 736,00;    0,930;    6,782;45648,534
 737,00;   -8,384;    7,536;45893,661
 738,00;    6,246;    8,522;45643,223
 739,00;   10,279;    7,767;45171,118
 740,00;   -8,583;    2,215;45144,134
 741,00;   -2,488;    3,690;45207,829
 742,00;   -2,077;    4,659;45004,046
 743,00;   -5,677;    5,013;44853,548
 744,00;   -9,121;    1,821;44322,740
 745,00;   -2,230;    7,429;44563,896
 746,00;    5,043;    1,159;44189,251
 747,00;   -6,220;    8,505;43951,240
 748,00;    0,781;    7,888;43273,005
 749,00;    1,057;    2,018;43377,164
 750,00;    4,929;    3,416;43159,180
 751,00;   -1,877;    4,206;42515,226
 752,00;   -0,677;    5,343;42079,535
 753,00;    7,632;    5,282;41340,851
 754,00;    3,729;    2,805;41319,095
 755,00;    0,020;    3,716;40276,796
 756,00;    2,233;    6,277;40243,016
 757,00;    2,431;    3,754;39576,232
 758,00;    2,451;    7,402;39704,427
 759,00;   12,518;    7,962;39000,068
 760,00;   -5,986;    0,977;38547,462
 761,00;    2,841;    4,183;38153,991
 762,00;   -7,461;    3,050;37786,002
 763,00;    7,444;    5,642;37426,534
 764,00;    0,998;    1,250;37181,135
 765,00;   -2,526;   -0,754;37171,447
 766,00;    2,444;    5,452;36472,322
 767,00;   -7,333;    4,444;36253,979
 768,00;    1,399;    1,429;36376,863
 769,00;   -0,788;   -1,182;36175,867
 770,00;    5,638;   -1,209;35848,783
 771,00;    9,728;   10,193;36034,098
 772,00;   11,501;    1,801;35733,893
 773,00;    6,911;    6,087;35890,631
 774,00;    0,202;    5,606;35598,640
 775,00;   -7,527;    1,026;35517,664
 776,00;    0,237;    6,113;35840,170
 777,00;    6,298;    3,884;35458,882
 778,00;   -3,279;    1,515;35524,560
 779,00;   13,191;    0,783;35476,436
 780,00;    6,102;    4,404;35814,053
 781,00;    5,063;    3,630;35835,393
 782,00;   -1,169;   -0,328;36141,052
 783,00;    1,309;    0,491;36275,895
 784,00;   -2,526;    7,288;36455,008
 785,00;    3,117;    1,558;36454,477
 786,00;    1,498;    4,119;36609,201
 787,00;    0,066;    3,715;36901,355
 788,00;    1,557;    4,785;36724,684
 789,00;   -2,403;    1,940;36884,133
 790,00;    5,283;    2,064;36639,539
 791,00;    5,522;    5,108;37085,536
 792,00;    5,782;    6,224;36549,884
 793,00;    5,589;    6,098;36684,174
 794,00;   -4,745;    5,712;36363,303
 795,00;   -1,452;   -0,945;36473,159
 796,00;    4,267;    0,387;36404,456
 797,00;    1,142;    2,339;36042,595
 798,00;    3,320;   -3,596;35780,798
 799,00;   -2,002;    4,808;35420,531
 800,00;   -3,234;    4,171;35284,582
 801,00;   -2,685;    5,810;34440,825
 802,00;    1,627;   -2,867;34443,663
 803,00;   -1,470;    2,139;34307,753
 804,00;   -0,056;    2,001;34113,270
 805,00;    0,008;    2,988;33636,256
 806,00;   -4,892;   -0,298;33060,784
 807,00;    6,075;   -0,155;33033,672
 808,00;   -4,004;    4,308;32711,975
 809,00;   -0,306;    8,518;32425,260
 810,00;   -5,030;    3,259;32035,332
 811,00;   -1,097;    1,769;32125,824
 812,00;   14,147;    1,863;31797,090
 813,00;   -3,438;    1,186;31540,208
 814,00;   -4,988;    5,133;31671,525
 815,00;   -2,532;    3,829;31296,928
 816,00;   -0,419;    3,106;31108,752
 817,00;   -0,295;    2,016;30605,363
 818,00;   -3,906;    4,338;30997,159
 819,00;    7,536;    3,089;30405,419
 820,00;    3,633;    7,159;30148,499
 821,00;    3,613;    2,660;30164,743
 822,00;   -0,563;    0,408;29768,480
 823,00;    6,064;    6,590;29524,454
 824,00;   -2,113;   -2,013;29316,800
 825,00;   -0,674;    7,821;29135,353
 826,00;    0,503;    4,077;28735,114
 827,00;    2,549;    6,341;28999,641
 828,00;    8,055;    3,056;28742,113
 829,00;    1,810;    0,872;28675,432
 830,00;    2,290;    2,746;28333,158
 831,00;   10,044;    2,474;28399,951
 832,00;   -4,504;    0,378;28376,515
 833,00;   -4,811;    8,963;28079,363
 834,00;    4,551;    0,427;28282,931
 835,00;    3,843;    3,908;28028,234
 836,00;    0,736;    0,164;28263,872
 837,00;    5,586;    4,288;27715,610
 838,00;    1,963;    5,189;27993,888
 839,00;   -8,756;    2,788;27779,555
 840,00;  -11,330;    5,828;27701,236
 841,00;   -5,441;    1,944;27736,924
 842,00;    5,805;    1,551;27678,304
 843,00;   -0,151;    2,396;27753,145
 844,00;    1,291;    2,294;27398,003
 845,00;   -5,470;    2,821;27621,076
 846,00;    4,033;    3,304;27366,872
 847,00;   -4,271;    1,994;27096,838
 848,00;   10,585;    5,303;27264,237
 849,00;    8,551;    3,693;26825,401
 850,00;    3,178;    3,226;26883,147
 851,00;    2,501;   -0,704;26469,412
 852,00;    2,276;    0,601;26592,544
 853,00;   10,311;    4,262;26031,020
 854,00;   -1,592;   -0,040;26191,045
 855,00;    5,199;    2,968;25751,538
 856,00;    6,025;    3,760;25443,997
 857,00;   -1,154;    1,498;25275,101
 858,00;    8,216;    1,043;24925,711
 859,00;   -4,161;   -1,107;24959,569
 860,00;   -3,442;    9,451;24400,622
 861,00;   -1,983;    5,719;24441,330
 862,00;    4,565;    0,653;23886,421
 863,00;    4,420;    2,847;23555,331
 864,00;   -2,892;   -0,398;23319,195
 865,00;    7,279;    3,187;22848,051
 866,00;   -2,517;    4,585;22877,885
 867,00;   -8,986;    0,949;22519,785
 868,00;   -0,563;   -4,376;22195,715
 869,00;    2,601;    0,732;21534,061
 870,00;   -2,229;   -2,655;21645,564
 871,00;   -4,529;    5,622;21223,098
 872,00;    3,360;    3,223;20818,920
 873,00;   -0,799;    4,779;20710,818
 874,00;   -5,481;   -0,088;20160,841
 875,00;   -3,247;    3,700;20174,218
 876,00;   -1,536;    1,890;19757,687
 877,00;  -10,442;    4,817;19629,732
 878,00;   -0,153;    9,605;19354,176
 879,00;   -2,621;    2,998;19113,723
 880,00;    0,580;   -1,484;18811,927
 881,00;    2,205;   56,385;18802,218
 882,00;    0,533;   -2,872;18731,867
 883,00;    3,707;    0,959;18789,016
 884,00;    0,849;    9,259;18731,407
 885,00;   -6,447;    5,312;18705,487
 886,00;    3,108;    2,379;18851,221
 887,00;    2,263;   -0,006;19028,694
 888,00;    1,413;    6,616;19049,508
 889,00;    1,277;   -2,783;19456,452
 890,00;   -9,296;    2,266;19130,202
 891,00;   -3,706;    4,306;19317,597
 892,00;    8,552;    7,445;19339,873
 893,00;   13,743;    2,059;19376,474
 894,00;    7,303;    7,355;19579,345
 895,00;    0,464;    3,550;19578,151
 896,00;   -3,821;    0,691;19794,546
 897,00;  -10,525;    1,859;19521,503
 898,00;    1,046;    0,633;19497,863
 899,00;   -4,346;    1,597;19606,431
 900,00;    0,573;    4,871;19487,794
 901,00;   -2,816;    0,429;19487,021
 902,00;    9,105;    1,193;19482,143
 903,00;   -7,109;    5,184;19496,932
 904,00;   11,715;    4,196;19361,232
 905,00;    2,892;    3,040;19177,774
 906,00;   -2,996;    2,088;19183,469
 907,00;    0,859;    0,821;18880,744
 908,00;   -5,143;    2,884;18753,880
 909,00;   10,574;    3,956;18443,324
 910,00;  -11,493;    4,127;18496,056
 911,00;    3,201;    0,490;18159,364
 912,00;   -6,454;    3,369;18072,057
 913,00;    2,086;   -1,364;17948,099
 914,00;    5,570;    3,961;17512,267
 915,00;   -3,391;    0,781;17686,300
 916,00;   -6,051;    1,643;17283,177
 917,00;    4,491;    4,271;17033,662
 918,00;   -1,987;    0,666;16796,326
 919,00;   -9,493;    2,611;16545,951
 920,00;   -4,264;    5,666;16356,050
 921,00;   -0,976;    5,856;16109,987
 922,00;    2,079;    8,668;15895,350
 923,00;   -0,587;    2,391;15548,135
 924,00;    4,995;    3,682;15312,339
 925,00;   -2,396;    3,474;14994,079
 926,00;    0,443;    3,483;14609,696
 927,00;    2,629;    4,173;14447,626
 928,00;    7,733;    4,918;13910,609
 929,00;   -7,178;    3,297;13868,985
 930,00;   11,221;    5,804;13383,963
 931,00;   -0,119;    1,265;13092,079
 932,00;   -6,992;   -2,047;12825,786
 933,00;   -1,394;    0,686;12357,902
 934,00;    6,608;    3,707;12086,283
 935,00;    5,252;   -0,258;11287,042
 936,00;   -6,948;    0,000;10652,333
 937,00;    5,526;    0,621; 9968,240
 938,00;    3,198;    3,722; 9160,350
 939,00;    3,547;   -1,002; 8456,071
 940,00;    5,812;    6,402; 7698,365
 941,00;   -2,362;    1,931; 7372,742
 942,00;   -5,047;    4,238; 7012,068
 943,00;   -9,508;    3,338; 6750,658
 944,00;    0,601;    6,158; 6704,312
 945,00;   -8,540;    3,383; 6645,972
 946,00;  -15,881;    1,673; 6750,353
 947,00;   -9,097;    2,045; 6684,124
 948,00;    2,339;    3,077; 6859,087
 949,00;   -0,387;   -0,724; 6905,299
 950,00;    3,578;    4,303; 6970,891
 951,00;   14,008;    3,734; 7242,058
 952,00;   -2,999;    1,565; 7155,168
 953,00;    0,890;    1,470; 7528,332
 954,00;   -6,329;    3,194; 7534,413
 955,00;   -1,609;    4,253; 7624,742
 956,00;    2,962;   -3,211; 7670,394
 957,00;    2,379;    6,497; 7760,754
 958,00;    2,010;    2,368; 7982,426
 959,00;   -3,147;   -0,842; 7792,457
 960,00;   13,491;    1,568; 7892,791
 961,00;    0,527;    3,466; 7960,323
 962,00;   -9,073;    3,733; 8009,871
 963,00;    3,791;   -1,271; 8056,483
 964,00;   -8,958;    2,504; 7940,252
 965,00;   -2,363;    0,979; 8034,092
 966,00;   -0,963;    5,138; 7920,691
 967,00;    4,316;    4,504; 7920,096
 968,00;    2,480;    1,336; 7911,080
 969,00;    5,729;    3,643; 7810,097
 970,00;   -5,338;    4,112; 7812,516
 971,00;    2,738;    0,975; 7822,167
 972,00;   -1,019;    2,244; 7703,449
 973,00;   -1,874;    3,829; 7741,144
 974,00;    3,454;    3,528; 7606,739
 975,00;    3,333;    9,840; 7616,591
 976,00;    1,133;    3,540; 7491,415
 977,00;   14,203;    1,158; 7433,090
 978,00;    2,274;    3,851; 7390,934
 979,00;    3,949;    5,284; 7234,839
 980,00;   -5,970;    3,377; 7221,538
 981,00;    4,984;    4,103; 7101,498
 982,00;    8,901;    5,376; 7030,563
 983,00;   -3,092;    0,185; 6964,459
 984,00;   -5,882;    1,903; 6791,681
 985,00;   -8,094;   -0,735; 6884,786
 986,00;   -1,417;    3,984; 6535,673
 987,00;   -0,176;    4,619; 6531,601
 988,00;   -7,675;    7,786; 6458,635
 989,00;   -4,899;    3,408; 6330,281
 990,00;    1,012;    7,383; 6200,638
 991,00;   -1,179;    3,803; 6044,263
 992,00;    1,688;    4,066; 5979,043
 993,00;    3,520;    2,968; 5879,213
 994,00;    3,950;    2,697; 5837,352
 995,00;    1,938;    4,746; 5672,640
 996,00;   -3,574;    4,696; 5479,321
 997,00;    0,746;    4,116; 5421,606
 998,00;   -2,469;    2,840; 5304,811
 999,00;    6,850;   -2,846; 5076,878
1000,00;   -2,520;   -0,401; 5073,507
1001,00;    9,899;    2,413; 4934,566
1002,00;   -6,728;    2,721; 4771,740
1003,00;   -6,471;    3,193; 4659,475
1004,00;    2,214;    3,318; 4567,170
1005,00;   -0,182;    2,971; 4448,672
1006,00;    1,567;    6,215; 4290,081
1007,00;   -5,715;    3,138; 4197,557
1008,00;   -0,020;    2,955; 4092,298
1009,00;    2,918;    5,693; 3950,825
1010,00;   -3,751;    3,239; 3976,646
1011,00;    6,681;    4,341; 3852,594
1012,00;    5,940;    4,219; 3822,411
1013,00;   -1,276;    3,989; 3796,641
1014,00;   -9,841;    1,826; 3774,270
1015,00;   10,164;    5,844; 3813,325
1016,00;   -5,929;    6,027; 3750,420
1017,00;   -2,832;    2,137; 3730,661
1018,00;   -3,311;    0,792; 3654,573
1019,00;   -0,438;    0,720; 3574,519
1020,00;   -2,057;    6,298; 3499,290
1021,00;    2,462;    7,873; 3310,743
1022,00;    7,275;    4,791; 3253,565
1023,00;    9,344;    2,559; 3145,936
1024,00;   -5,898;    1,850; 3073,108
1025,00;   -7,504;    0,314; 2982,295
1026,00;   -1,924;    0,408; 2842,767
1027,00;    2,264;    3,243; 2770,938
1028,00;    2,553;    3,014; 2630,616
1029,00;   -1,805;    4,191; 2552,565
1030,00;   -6,558;    3,906; 2458,928
1031,00;   -3,371;    2,348; 2376,469
1032,00;    0,842;   -0,189; 2339,266
1033,00;    9,297;    1,268; 2230,116
1034,00;   -5,620;    9,510; 2165,551
1035,00;   -8,747;    1,348; 2093,223
1036,00;   -4,279;    3,156; 2021,790
1037,00;   -1,539;    1,820; 1948,954
1038,00;   -8,964;    3,195; 1904,856
1039,00;   -7,878;    0,630; 1843,503
1040,00;  -11,634;    0,761; 1762,364
1041,00;    0,592;    2,140; 1731,450
1042,00;    9,520;    4,696; 1670,515
1043,00;   -3,921;    3,250; 1609,635
1044,00;    3,928;    6,727; 1568,765
1045,00;   -2,399;    5,127; 1523,020
1046,00;    3,672;    6,818; 1478,453
1047,00;    1,770;    1,683; 1429,356
1048,00;    3,181;    5,404; 1394,443
1049,00;   -4,606;    4,401; 1342,936
1050,00;   -9,043;    2,565; 1315,683
1051,00;    5,771;    2,439; 1277,001
1052,00;   -2,209;    4,119; 1231,814
1053,00;    0,734;    5,556; 1222,191
1054,00;    8,855;    4,484; 1197,243
1055,00;   -8,999;   -7,048; 1156,731
1056,00;    1,330;   23,212; 1136,129
1057,00;   -9,601;    1,466; 1075,188
1058,00;    1,997;    1,519; 1064,890
1059,00;    0,146;   -1,981; 1025,328
1060,00;   -5,118;    4,271;  991,931
1061,00;   -5,759;    4,827;  969,708
1062,00;    3,404;    5,977;  948,920
1063,00;   -9,642;    5,065;  912,247
1064,00;    5,663;    6,614;  896,884
1065,00;  -10,865;    2,581;  859,071
1066,00;    6,734;    3,721;  850,201
1067,00;   -6,266;    1,855;  833,671
1068,00;    4,637;    4,291;  803,982
1069,00;   -2,175;    0,971;  800,529
1070,00;    1,428;   -6,648;  781,254
1071,00;    0,920;    0,465;  784,165
1072,00;   -7,965;    1,958;  755,231
1073,00;    0,968;   -1,788;  743,175
1074,00;    7,487;    9,582;  722,567
1075,00;  -19,589;    4,458;  707,139
1076,00;   -4,428;    5,820;  694,732
1077,00;    2,810;   -1,830;  672,129
1078,00;    0,785;    7,273;  667,702
1079,00;    6,692;    9,890;  658,769
1080,00;    9,862;    0,934;  642,278
1081,00;    2,637;    3,234;  627,163
1082,00;    2,911;    5,023;  601,046
1083,00;    2,689;    1,785;  571,290
1084,00;    0,121;    0,679;  605,954
1085,00;    1,008;    3,167;  585,327
1086,00;    3,779;    2,699;  555,308
1087,00;   -3,978;    3,714;  557,223
1088,00;   -4,455;    5,041;  527,679
1089,00;   -1,070;    1,571;  504,374
1090,00;    8,945;    1,848;  495,711
1091,00;    6,514;   -2,199;  496,580
1092,00;   10,954;    8,707;  484,457
1093,00;    2,595;    4,808;  462,186
1094,00;   -3,709;    2,264;  452,215
1095,00;   -4,353;    3,360;  435,345
1096,00;   -8,576;    3,219;  424,386
1097,00;    8,581;    3,403;  414,662
1098,00;    6,438;    0,315;  403,777
1099,00;   Not Available
1100,00;   Not Available

