
Integration time [ms]:  10,000
Averaging Nr. [scans]: 30
Smoothing Nr. [pixels]: 0
Data measured with spectrometer [name]: 0901140U1
Wave   ;Sample   ;Dark     ;Reference;Scope
[nm]   ;[counts] ;[counts] ;[counts] 

 260,00;   Not Available
 261,00;   Not Available
 262,00;   Not Available
 263,00;   Not Available
 264,00;   Not Available
 265,00;   Not Available
 266,00;   Not Available
 267,00;   Not Available
 268,00;   Not Available
 269,00;   Not Available
 270,00;   Not Available
 271,00;   Not Available
 272,00;   Not Available
 273,00;   Not Available
 274,00;   Not Available
 275,00;   Not Available
 276,00;   Not Available
 277,00;   Not Available
 278,00;   Not Available
 279,00;   Not Available
 280,00;   Not Available
 281,00;   Not Available
 282,00;   Not Available
 283,00;   Not Available
 284,00;   Not Available
 285,00;   Not Available
 286,00;   Not Available
 287,00;   Not Available
 288,00;   Not Available
 289,00;   Not Available
 290,00;   Not Available
 291,00;   Not Available
 292,00;   Not Available
 293,00;   Not Available
 294,00;   Not Available
 295,00;   Not Available
 296,00;   Not Available
 297,00;   Not Available
 298,00;   Not Available
 299,00;   Not Available
 300,00;   Not Available
 301,00;   Not Available
 302,00;   Not Available
 303,00;   Not Available
 304,00;   Not Available
 305,00;   Not Available
 306,00;   Not Available
 307,00;   Not Available
 308,00;   Not Available
 309,00;   Not Available
 310,00;   Not Available
 311,00;   Not Available
 312,00;   Not Available
 313,00;   Not Available
 314,00;   Not Available
 315,00;   Not Available
 316,00;   Not Available
 317,00;   Not Available
 318,00;   Not Available
 319,00;   Not Available
 320,00;   Not Available
 321,00;   Not Available
 322,00;   Not Available
 323,00;   Not Available
 324,00;   Not Available
 325,00;   Not Available
 326,00;   Not Available
 327,00;   Not Available
 328,00;   Not Available
 329,00;   Not Available
 330,00;   Not Available
 331,00;   Not Available
 332,00;   Not Available
 333,00;   Not Available
 334,00;   Not Available
 335,00;   Not Available
 336,00;   Not Available
 337,00;   Not Available
 338,00;   Not Available
 339,00;   Not Available
 340,00;   Not Available
 341,00;   Not Available
 342,00;   Not Available
 343,00;   -7,114;   -0,042; 5308,653
 344,00;    3,138;    3,248; 5435,737
 345,00;   -3,293;   -0,687; 5586,839
 346,00;    3,437;   -1,316; 5899,019
 347,00;    2,683;    0,583; 6169,222
 348,00;    0,955;    4,643; 6334,159
 349,00;   -3,693;    1,589; 6593,907
 350,00;   -7,166;   -0,161; 6639,549
 351,00;   -0,389;   -3,740; 6811,936
 352,00;   -2,682;    4,863; 6805,536
 353,00;   13,877;    3,098; 6722,142
 354,00;  -13,199;   11,456; 6660,788
 355,00;    7,014;   -0,317; 6859,957
 356,00;   -6,137;    3,085; 7013,905
 357,00;   -3,544;    1,773; 7062,159
 358,00;   10,308;   -1,850; 7139,153
 359,00;    9,579;    5,362; 7172,313
 360,00;    0,189;   -0,945; 7184,622
 361,00;    0,148;    4,640; 7271,278
 362,00;   -1,299;    1,986; 7267,726
 363,00;    2,391;   -1,653; 7353,291
 364,00;  -11,561;    3,267; 7347,788
 365,00;    1,273;   -2,526; 7376,368
 366,00;    7,200;    5,423; 7425,625
 367,00;   -5,490;    1,077; 7691,767
 368,00;    5,080;   -0,660; 7901,408
 369,00;   -7,170;   -2,295; 7832,170
 370,00;    9,191;    0,997; 8026,802
 371,00;    3,514;    0,108; 7804,205
 372,00;    3,128;   -0,688; 7872,014
 373,00;    2,688;    1,758; 7907,641
 374,00;    2,010;    0,283; 7977,145
 375,00;    3,895;    0,361; 7791,377
 376,00;    2,740;    1,476; 7795,045
 377,00;    4,568;    4,076; 7797,232
 378,00;    0,957;    4,427; 8369,540
 379,00;   -5,225;    6,374; 8415,530
 380,00;    2,731;    4,474; 8362,086
 381,00;   -0,192;    8,202; 8145,759
 382,00;    2,165;    8,451; 8040,339
 383,00;    1,268;    3,121; 7942,856
 384,00;    7,747;    2,617; 7877,278
 385,00;   -0,443;    1,733; 7830,965
 386,00;    3,297;    3,665; 8065,170
 387,00;    5,754;    7,203; 8047,448
 388,00;    0,246;    4,292; 8521,671
 389,00;    5,953;    3,476; 8246,824
 390,00;   -3,117;   -3,709; 8205,581
 391,00;   -4,218;    0,076; 7955,041
 392,00;  -16,263;    7,527; 8241,355
 393,00;    4,904;    1,829; 8365,932
 394,00;    4,278;    9,557; 7975,822
 395,00;    6,325;   -2,359; 8086,842
 396,00;    5,121;    5,159; 8008,916
 397,00;    2,263;    7,819; 8328,379
 398,00;   -1,770;    0,294; 8563,734
 399,00;   -5,359;    6,943; 8852,164
 400,00;    7,502;    5,366; 8319,759
 401,00;   -2,738;    3,627; 7747,729
 402,00;    6,501;    1,281; 7571,799
 403,00;   -1,276;    6,363; 7412,172
 404,00;    5,051;    5,728; 7669,434
 405,00;    3,345;    1,982; 7609,302
 406,00;    1,378;    0,823; 7620,879
 407,00;    6,714;    6,431; 7442,482
 408,00;    5,295;    2,157; 7481,070
 409,00;    3,891;   -0,802; 7398,022
 410,00;   -1,583;    2,440; 7427,271
 411,00;   -4,019;    3,476; 7405,718
 412,00;   -0,834;    6,473; 7360,099
 413,00;    3,430;    2,681; 7486,115
 414,00;    7,314;    2,528; 7927,028
 415,00;    2,207;    5,374; 7686,086
 416,00;  -10,387;    0,564; 7494,637
 417,00;   -6,408;    1,319; 7471,791
 418,00;    0,988;    3,676; 7560,669
 419,00;    1,324;    4,244; 7755,964
 420,00;    2,548;    3,001; 8012,610
 421,00;    0,255;    6,532; 8465,100
 422,00;   11,432;    6,996; 9161,408
 423,00;   -4,005;   -2,817; 9191,825
 424,00;    8,073;   -0,062; 9271,484
 425,00;   -4,364;    5,149; 8852,789
 426,00;    1,519;    2,015; 8801,746
 427,00;   -7,877;    2,890; 8997,735
 428,00;   12,477;    2,147; 9554,482
 429,00;    0,991;    2,279; 9685,289
 430,00;    1,838;    6,943;10238,988
 431,00;    2,967;    2,435;10520,281
 432,00;    6,982;    1,956; 9940,647
 433,00;   -0,923;    0,383; 9535,601
 434,00;   10,384;    3,284; 9904,623
 435,00;    4,083;    1,111;10198,457
 436,00;   14,018;    3,710;10046,201
 437,00;    9,843;    2,990;10107,762
 438,00;    4,457;   -1,790;10187,177
 439,00;    0,792;    0,801; 9930,316
 440,00;   -1,876;    4,995; 9843,439
 441,00;    4,812;    4,683;10147,359
 442,00;    4,357;    1,708; 9880,016
 443,00;    0,758;    4,022; 9609,006
 444,00;    6,001;    4,970; 8842,917
 445,00;    6,416;    3,642; 8717,773
 446,00;    3,441;    0,294; 9108,867
 447,00;    0,266;    3,214; 9446,540
 448,00;    5,539;    1,678;10103,260
 449,00;   11,707;    4,529;10864,071
 450,00;   -6,956;    0,285;11428,142
 451,00;   10,345;   -1,116;11859,538
 452,00;   -1,705;    1,252;11920,851
 453,00;   -8,978;    3,434;12365,451
 454,00;  -10,635;   -1,505;12348,034
 455,00;    5,696;    4,028;12907,695
 456,00;   11,228;    6,445;13043,195
 457,00;    4,119;    3,011;13154,216
 458,00;    6,299;    3,227;13466,441
 459,00;   16,884;    1,747;13925,955
 460,00;   -2,309;    2,647;13797,224
 461,00;    2,383;    4,310;13717,760
 462,00;    6,358;    2,955;13603,510
 463,00;    7,527;    1,672;13405,965
 464,00;   -1,986;    2,324;14202,312
 465,00;   -0,253;    6,023;14951,125
 466,00;    1,162;    2,250;15131,470
 467,00;    2,565;   -3,115;14825,442
 468,00;    1,997;    1,957;14679,288
 469,00;   -5,024;   -1,137;14474,279
 470,00;   12,128;   -1,581;14051,918
 471,00;   16,636;    1,502;13976,505
 472,00;    1,634;    1,868;14369,674
 473,00;    0,693;   -0,932;14937,848
 474,00;   -0,420;    1,334;15444,499
 475,00;    1,935;   -1,157;15589,378
 476,00;   10,455;    6,891;16010,549
 477,00;   -2,929;   -2,285;15962,462
 478,00;   -1,921;    3,104;16332,794
 479,00;    4,412;    5,322;16686,910
 480,00;    1,055;    0,553;17099,205
 481,00;   14,872;    5,806;17484,386
 482,00;   -1,501;    3,372;17809,137
 483,00;    8,729;    2,125;17966,667
 484,00;    4,570;   -3,126;18556,171
 485,00;   -6,510;    1,445;22468,907
 486,00;   10,823;    0,811;31549,406
 487,00;    8,111;   -1,395;31339,104
 488,00;   11,284;    6,628;20056,548
 489,00;    6,987;    3,347;18925,110
 490,00;    9,834;    5,383;19158,655
 491,00;   -4,325;    1,072;19219,379
 492,00;    4,790;    0,479;19039,717
 493,00;    2,101;    4,369;19073,019
 494,00;    6,732;   -1,705;19310,317
 495,00;   17,033;   -1,691;18904,344
 496,00;   -2,917;    5,041;19320,323
 497,00;   -3,367;    0,713;19521,951
 498,00;    1,778;    6,657;18975,697
 499,00;    3,381;    0,021;19205,823
 500,00;    7,023;   -0,637;19409,174
 501,00;    2,100;    6,167;19400,656
 502,00;    4,837;    2,731;19825,945
 503,00;    2,881;    3,819;19852,170
 504,00;   -0,692;    6,267;19545,973
 505,00;    3,839;    0,363;19039,183
 506,00;    2,495;    3,055;19003,583
 507,00;   -5,518;    0,945;18811,889
 508,00;    7,613;   -1,997;18717,782
 509,00;   -0,834;   -1,410;18586,254
 510,00;    5,322;    3,725;18561,556
 511,00;   -0,041;    2,462;18666,460
 512,00;   10,353;    1,534;18630,675
 513,00;   -4,933;    9,685;18387,922
 514,00;   13,086;    6,780;18242,142
 515,00;    6,615;    5,326;17622,089
 516,00;   -5,491;    1,225;17554,524
 517,00;    3,871;    1,162;17230,740
 518,00;    1,321;   22,620;17035,085
 519,00;    3,735;    4,323;16742,225
 520,00;    4,213;    3,130;16657,887
 521,00;   -6,883;    8,944;16327,533
 522,00;    1,869;    7,491;16240,052
 523,00;    2,592;   -2,718;16176,654
 524,00;    3,849;   -4,601;16443,395
 525,00;   -1,096;    4,013;16357,991
 526,00;    4,603;    8,007;16480,530
 527,00;    9,706;    6,683;16252,598
 528,00;    5,618;    4,062;16653,785
 529,00;   16,301;    4,644;16864,332
 530,00;    6,131;   -0,177;17253,771
 531,00;    1,825;   -0,185;17030,089
 532,00;    1,686;    1,673;17490,817
 533,00;    2,896;    0,578;18275,787
 534,00;   13,579;    6,339;19191,745
 535,00;  -10,060;   -0,042;19583,412
 536,00;   19,693;   -5,456;19801,991
 537,00;   -4,066;    3,493;19468,151
 538,00;    0,998;    3,718;19791,057
 539,00;    5,032;    7,833;19953,273
 540,00;   21,718;    2,284;19774,906
 541,00;   17,464;    4,635;19327,634
 542,00;   31,077;    0,439;19376,597
 543,00;   21,857;    1,270;19258,235
 544,00;   25,413;   -0,154;19421,154
 545,00;   30,381;    6,065;19569,175
 546,00;   38,698;   -1,895;19720,234
 547,00;   29,374;    0,648;19926,118
 548,00;   17,713;    0,086;20885,498
 549,00;    5,560;   -0,038;21048,594
 550,00;   27,075;    4,478;20441,229
 551,00;   11,195;    0,368;20291,522
 552,00;   15,609;   -0,605;20750,020
 553,00;    4,809;    6,332;21136,333
 554,00;    1,656;    3,933;21175,515
 555,00;    5,137;    2,375;21441,113
 556,00;    4,563;    0,634;22267,749
 557,00;   -8,581;    1,533;22532,690
 558,00;   -0,762;    4,612;23078,812
 559,00;   -4,587;    3,711;23491,301
 560,00;   -6,487;   -1,764;24464,614
 561,00;   -0,189;    6,008;25434,026
 562,00;    7,180;    2,368;25900,670
 563,00;    1,915;   -1,849;26285,369
 564,00;    5,697;   11,938;26912,675
 565,00;    5,029;    5,430;27477,788
 566,00;   -5,461;    2,382;27874,917
 567,00;   -2,180;    3,512;28666,529
 568,00;    4,834;    2,958;29770,636
 569,00;    3,360;   -0,522;31102,097
 570,00;    2,128;    0,188;32978,253
 571,00;    3,418;    2,910;34369,629
 572,00;    4,307;    3,662;35240,696
 573,00;    0,932;   -1,779;35774,339
 574,00;    3,273;    2,880;36874,327
 575,00;   -1,181;    0,981;37501,588
 576,00;    1,775;    7,072;37331,900
 577,00;    4,849;    6,284;37778,065
 578,00;   11,748;   -2,775;38695,355
 579,00;    6,945;    6,153;38248,724
 580,00;    4,295;    4,260;37071,396
 581,00;   10,099;    5,770;38578,649
 582,00;   13,171;    2,590;39207,020
 583,00;   -5,284;    5,177;37470,977
 584,00;   19,713;    5,213;35636,726
 585,00;    8,537;    2,963;36323,937
 586,00;    7,331;    0,225;36611,662
 587,00;   10,734;    2,959;36328,456
 588,00;    3,792;    7,420;36086,156
 589,00;    5,728;    5,812;35896,728
 590,00;    6,615;    5,054;35650,694
 591,00;   16,472;    8,888;35815,884
 592,00;    5,087;    6,022;36089,818
 593,00;   10,779;   -0,248;36859,857
 594,00;    7,761;   -1,801;36792,130
 595,00;   18,859;    3,127;36973,920
 596,00;    0,191;    0,218;36879,888
 597,00;   16,295;    6,610;37328,150
 598,00;    6,023;    0,515;37101,256
 599,00;   13,358;    1,860;37353,732
 600,00;    4,049;    5,298;37386,589
 601,00;   16,668;    2,013;37851,726
 602,00;    3,955;    0,092;36887,099
 603,00;    8,738;    0,589;37382,548
 604,00;    4,295;    3,939;36696,808
 605,00;    1,878;    4,699;36721,164
 606,00;   14,829;    1,771;36169,331
 607,00;    6,331;    4,815;36331,526
 608,00;    1,598;    7,694;35668,702
 609,00;   14,851;   -1,222;35820,190
 610,00;   11,194;    4,886;35288,211
 611,00;   40,747;    4,182;35331,259
 612,00;   55,906;   -0,146;34836,154
 613,00;   44,310;   -2,113;34671,862
 614,00;   33,107;    0,070;34298,335
 615,00;   26,437;    0,562;34331,296
 616,00;   16,358;    2,960;34028,695
 617,00;    2,456;    5,008;34144,864
 618,00;   -0,184;    2,960;34200,385
 619,00;    4,122;    1,023;34374,462
 620,00;    1,770;    2,619;34782,222
 621,00;   17,632;    6,023;35152,758
 622,00;   12,434;    0,418;35441,372
 623,00;   14,071;    5,531;36021,990
 624,00;   14,140;    0,388;36494,263
 625,00;    7,579;    6,006;36262,749
 626,00;    9,096;    1,077;36732,193
 627,00;    7,851;    5,224;36698,499
 628,00;   11,543;    0,370;37373,709
 629,00;    4,633;    9,106;37579,336
 630,00;   11,607;   -0,291;38028,031
 631,00;   17,415;    3,879;38202,109
 632,00;    1,194;    5,007;38990,489
 633,00;   11,563;    0,551;39293,266
 634,00;    5,453;    0,404;40032,573
 635,00;    1,192;    3,114;40600,067
 636,00;   -2,172;    5,063;41558,948
 637,00;    0,581;    2,150;41885,449
 638,00;   -2,434;    2,875;42892,711
 639,00;   -2,073;    2,905;43655,095
 640,00;    1,274;    3,107;44176,099
 641,00;    3,432;    4,516;44978,812
 642,00;   -1,493;    6,812;45765,159
 643,00;    8,116;    7,026;46324,008
 644,00;    5,878;    5,651;46714,845
 645,00;   -0,988;    0,864;47229,471
 646,00;   -1,932;    0,634;47893,808
 647,00;   -1,325;    2,331;48047,108
 648,00;    9,212;    3,025;48312,216
 649,00;   -0,969;    4,851;48508,625
 650,00;    5,112;    0,434;48522,038
 651,00;    6,018;    3,312;49018,126
 652,00;    8,081;    2,491;48531,035
 653,00;   19,464;    0,635;48870,640
 654,00;  -14,061;    0,401;48778,588
 655,00;   -5,993;   -0,224;49845,531
 656,00;    1,088;   -0,043;55463,470
 657,00;    6,315;    0,637;56631,300
 658,00;    1,631;    8,040;49246,714
 659,00;    8,385;    2,697;49158,694
 660,00;   -3,977;    2,498;48768,216
 661,00;    0,955;    4,144;48814,878
 662,00;   -0,772;    5,911;48876,194
 663,00;    5,804;    3,329;48702,559
 664,00;    0,694;    1,404;48892,247
 665,00;   -1,230;    2,870;49183,260
 666,00;    5,422;    1,339;49689,752
 667,00;    2,574;    2,657;49188,088
 668,00;   -0,142;    2,678;49895,399
 669,00;    5,902;    3,936;49712,233
 670,00;   -1,365;    2,760;50304,498
 671,00;   -4,868;    0,201;50279,333
 672,00;    2,931;    6,155;50457,989
 673,00;  -13,212;    6,194;50480,294
 674,00;   11,437;    6,817;51278,567
 675,00;  -20,670;    4,144;50519,404
 676,00;    8,508;    4,146;51341,541
 677,00;    4,691;    5,625;50461,849
 678,00;    6,057;    1,109;50993,719
 679,00;   -4,407;    4,677;50473,464
 680,00;    1,361;    4,174;50803,425
 681,00;   -4,228;    0,235;49968,370
 682,00;    4,327;    0,662;50400,417
 683,00;   -2,212;    2,125;49930,562
 684,00;   -6,683;    7,792;49692,460
 685,00;    3,587;    3,155;49829,487
 686,00;    1,695;    5,728;49799,843
 687,00;    2,571;    2,544;50213,077
 688,00;  -10,379;    5,236;49460,159
 689,00;   -2,890;    3,807;50051,820
 690,00;   -1,487;   -2,713;49086,613
 691,00;    7,249;    5,767;50208,881
 692,00;    6,232;    8,461;49553,000
 693,00;    2,516;   -4,389;49815,210
 694,00;  -11,623;   -4,831;49597,372
 695,00;    6,058;    1,650;49860,159
 696,00;   -6,137;    0,391;49573,614
 697,00;    9,101;    3,312;50198,054
 698,00;    8,250;    5,182;49775,512
 699,00;    4,593;    1,389;49993,374
 700,00;    3,120;    5,814;50249,553
 701,00;    4,797;   -6,151;49671,834
 702,00;    5,866;   24,422;50178,262
 703,00;   -2,178;    1,372;49507,536
 704,00;   -1,601;    2,128;49640,561
 705,00;   -4,371;    2,489;49545,116
 706,00;    8,859;    6,002;49614,926
 707,00;    8,539;    5,496;49508,597
 708,00;   10,183;    0,281;49185,260
 709,00;    0,481;    0,928;48762,067
 710,00;    1,478;    0,257;48784,377
 711,00;   -1,668;    2,116;48442,609
 712,00;    7,329;    2,398;48379,045
 713,00;   -2,451;    3,319;48124,926
 714,00;   -2,938;    3,323;47788,560
 715,00;   -2,120;    2,670;47352,499
 716,00;   -6,117;    1,001;47327,557
 717,00;    0,917;   -0,767;47075,032
 718,00;   -1,936;    4,123;46231,429
 719,00;   -3,041;    4,611;46379,970
 720,00;   -3,551;    5,204;45934,552
 721,00;   -5,527;    5,484;46184,420
 722,00;  -16,008;   -1,745;45333,735
 723,00;   -4,980;   -4,147;45312,754
 724,00;   -6,283;    1,669;45384,225
 725,00;    1,935;    3,052;45169,462
 726,00;    7,612;   -1,233;45215,307
 727,00;   -8,421;    4,459;45402,216
 728,00;    6,764;    3,743;45198,493
 729,00;    2,674;   -0,075;45036,927
 730,00;   -5,366;    2,884;45281,836
 731,00;    3,950;    2,623;45243,883
 732,00;    5,605;    9,943;45542,623
 733,00;  -12,036;   -1,006;45407,017
 734,00;  -11,698;   -3,252;45594,318
 735,00;    2,097;   -1,722;45662,838
 736,00;   -5,259;    6,782;45648,534
 737,00;   -7,987;    7,536;45893,661
 738,00;    2,753;    8,522;45643,223
 739,00;    7,365;    7,767;45171,118
 740,00;    4,081;    2,215;45144,134
 741,00;    3,480;    3,690;45207,829
 742,00;    0,965;    4,659;45004,046
 743,00;   16,524;    5,013;44853,548
 744,00;   -4,110;    1,821;44322,740
 745,00;    4,972;    7,429;44563,896
 746,00;    2,914;    1,159;44189,251
 747,00;    3,553;    8,505;43951,240
 748,00;  -10,804;    7,888;43273,005
 749,00;   -6,211;    2,018;43377,164
 750,00;   -0,279;    3,416;43159,180
 751,00;    6,463;    4,206;42515,226
 752,00;   -1,551;    5,343;42079,535
 753,00;    3,804;    5,282;41340,851
 754,00;   10,410;    2,805;41319,095
 755,00;   -0,470;    3,716;40276,796
 756,00;   -6,639;    6,277;40243,016
 757,00;    1,299;    3,754;39576,232
 758,00;    9,495;    7,402;39704,427
 759,00;    6,910;    7,962;39000,068
 760,00;   -7,938;    0,977;38547,462
 761,00;   -4,398;    4,183;38153,991
 762,00;   -1,074;    3,050;37786,002
 763,00;    1,316;    5,642;37426,534
 764,00;   -5,764;    1,250;37181,135
 765,00;    1,347;   -0,754;37171,447
 766,00;   -4,829;    5,452;36472,322
 767,00;    2,058;    4,444;36253,979
 768,00;  -10,387;    1,429;36376,863
 769,00;   -9,983;   -1,182;36175,867
 770,00;    2,475;   -1,209;35848,783
 771,00;    4,626;   10,193;36034,098
 772,00;    4,590;    1,801;35733,893
 773,00;    5,361;    6,087;35890,631
 774,00;   -0,400;    5,606;35598,640
 775,00;    6,035;    1,026;35517,664
 776,00;   10,153;    6,113;35840,170
 777,00;    0,939;    3,884;35458,882
 778,00;    5,357;    1,515;35524,560
 779,00;    0,920;    0,783;35476,436
 780,00;    6,304;    4,404;35814,053
 781,00;   -8,114;    3,630;35835,393
 782,00;    8,292;   -0,328;36141,052
 783,00;   -4,240;    0,491;36275,895
 784,00;   -4,899;    7,288;36455,008
 785,00;    5,120;    1,558;36454,477
 786,00;   -3,226;    4,119;36609,201
 787,00;   -3,017;    3,715;36901,355
 788,00;    2,180;    4,785;36724,684
 789,00;    4,225;    1,940;36884,133
 790,00;   -5,878;    2,064;36639,539
 791,00;   -7,921;    5,108;37085,536
 792,00;    1,844;    6,224;36549,884
 793,00;    6,160;    6,098;36684,174
 794,00;   -2,204;    5,712;36363,303
 795,00;    6,082;   -0,945;36473,159
 796,00;    3,281;    0,387;36404,456
 797,00;    3,467;    2,339;36042,595
 798,00;    3,040;   -3,596;35780,798
 799,00;    8,657;    4,808;35420,531
 800,00;   19,244;    4,171;35284,582
 801,00;    3,727;    5,810;34440,825
 802,00;    3,815;   -2,867;34443,663
 803,00;    7,310;    2,139;34307,753
 804,00;    4,525;    2,001;34113,270
 805,00;   11,045;    2,988;33636,256
 806,00;   -0,901;   -0,298;33060,784
 807,00;    8,715;   -0,155;33033,672
 808,00;   10,800;    4,308;32711,975
 809,00;   16,438;    8,518;32425,260
 810,00;    9,384;    3,259;32035,332
 811,00;    7,013;    1,769;32125,824
 812,00;   23,073;    1,863;31797,090
 813,00;   12,651;    1,186;31540,208
 814,00;   12,134;    5,133;31671,525
 815,00;   18,801;    3,829;31296,928
 816,00;   19,179;    3,106;31108,752
 817,00;   26,477;    2,016;30605,363
 818,00;   42,753;    4,338;30997,159
 819,00;   42,084;    3,089;30405,419
 820,00;   65,018;    7,159;30148,499
 821,00;   68,740;    2,660;30164,743
 822,00;  119,391;    0,408;29768,480
 823,00;  205,069;    6,590;29524,454
 824,00;  463,201;   -2,013;29316,800
 825,00; 4419,007;    7,821;29135,353
 826,00;41122,700;    4,077;28735,114
 827,00;24496,492;    6,341;28999,641
 828,00; 1849,738;    3,056;28742,113
 829,00;  425,353;    0,872;28675,432
 830,00;  194,549;    2,746;28333,158
 831,00;  129,834;    2,474;28399,951
 832,00;  100,064;    0,378;28376,515
 833,00;   66,710;    8,963;28079,363
 834,00;   46,188;    0,427;28282,931
 835,00;   31,437;    3,908;28028,234
 836,00;   30,128;    0,164;28263,872
 837,00;   23,940;    4,288;27715,610
 838,00;   24,484;    5,189;27993,888
 839,00;   19,124;    2,788;27779,555
 840,00;   16,960;    5,828;27701,236
 841,00;   14,337;    1,944;27736,924
 842,00;    7,965;    1,551;27678,304
 843,00;   17,492;    2,396;27753,145
 844,00;    9,573;    2,294;27398,003
 845,00;    8,217;    2,821;27621,076
 846,00;    4,216;    3,304;27366,872
 847,00;    8,039;    1,994;27096,838
 848,00;    0,130;    5,303;27264,237
 849,00;    7,946;    3,693;26825,401
 850,00;    1,382;    3,226;26883,147
 851,00;    7,504;   -0,704;26469,412
 852,00;   -2,656;    0,601;26592,544
 853,00;   13,541;    4,262;26031,020
 854,00;   -0,873;   -0,040;26191,045
 855,00;   11,963;    2,968;25751,538
 856,00;    4,582;    3,760;25443,997
 857,00;    5,531;    1,498;25275,101
 858,00;    9,191;    1,043;24925,711
 859,00;    5,756;   -1,107;24959,569
 860,00;    0,125;    9,451;24400,622
 861,00;   -5,668;    5,719;24441,330
 862,00;   -2,923;    0,653;23886,421
 863,00;   -1,266;    2,847;23555,331
 864,00;    3,812;   -0,398;23319,195
 865,00;   -2,146;    3,187;22848,051
 866,00;    1,575;    4,585;22877,885
 867,00;   -3,018;    0,949;22519,785
 868,00;    2,174;   -4,376;22195,715
 869,00;    8,548;    0,732;21534,061
 870,00;    0,789;   -2,655;21645,564
 871,00;   -3,120;    5,622;21223,098
 872,00;    5,485;    3,223;20818,920
 873,00;    3,880;    4,779;20710,818
 874,00;  -13,232;   -0,088;20160,841
 875,00;   -7,941;    3,700;20174,218
 876,00;  -10,832;    1,890;19757,687
 877,00;    0,851;    4,817;19629,732
 878,00;    2,056;    9,605;19354,176
 879,00;    3,428;    2,998;19113,723
 880,00;    7,167;   -1,484;18811,927
 881,00;    2,840;   56,385;18802,218
 882,00;   -7,574;   -2,872;18731,867
 883,00;    1,287;    0,959;18789,016
 884,00;   -5,245;    9,259;18731,407
 885,00;   -3,866;    5,312;18705,487
 886,00;    0,408;    2,379;18851,221
 887,00;   -1,026;   -0,006;19028,694
 888,00;   -1,362;    6,616;19049,508
 889,00;    4,913;   -2,783;19456,452
 890,00;    5,548;    2,266;19130,202
 891,00;    4,983;    4,306;19317,597
 892,00;    3,908;    7,445;19339,873
 893,00;   -1,463;    2,059;19376,474
 894,00;    6,293;    7,355;19579,345
 895,00;   -6,515;    3,550;19578,151
 896,00;    1,780;    0,691;19794,546
 897,00;   -7,967;    1,859;19521,503
 898,00;    2,665;    0,633;19497,863
 899,00;    5,378;    1,597;19606,431
 900,00;   -4,078;    4,871;19487,794
 901,00;   -0,962;    0,429;19487,021
 902,00;  -13,550;    1,193;19482,143
 903,00;    8,204;    5,184;19496,932
 904,00;   -1,188;    4,196;19361,232
 905,00;   -6,702;    3,040;19177,774
 906,00;   -4,851;    2,088;19183,469
 907,00;   -1,402;    0,821;18880,744
 908,00;    7,082;    2,884;18753,880
 909,00;   -3,772;    3,956;18443,324
 910,00;   -6,657;    4,127;18496,056
 911,00;    8,039;    0,490;18159,364
 912,00;    9,256;    3,369;18072,057
 913,00;    4,559;   -1,364;17948,099
 914,00;   -3,712;    3,961;17512,267
 915,00;    1,319;    0,781;17686,300
 916,00;    3,017;    1,643;17283,177
 917,00;    2,707;    4,271;17033,662
 918,00;    1,444;    0,666;16796,326
 919,00;   -5,151;    2,611;16545,951
 920,00;    2,469;    5,666;16356,050
 921,00;    2,963;    5,856;16109,987
 922,00;   -6,477;    8,668;15895,350
 923,00;   -0,404;    2,391;15548,135
 924,00;   -6,840;    3,682;15312,339
 925,00;    5,895;    3,474;14994,079
 926,00;    4,428;    3,483;14609,696
 927,00;    4,082;    4,173;14447,626
 928,00;    1,222;    4,918;13910,609
 929,00;   -6,399;    3,297;13868,985
 930,00;   -0,076;    5,804;13383,963
 931,00;    3,506;    1,265;13092,079
 932,00;    6,147;   -2,047;12825,786
 933,00;   -1,588;    0,686;12357,902
 934,00;   -3,737;    3,707;12086,283
 935,00;   -0,702;   -0,258;11287,042
 936,00;   -5,403;    0,000;10652,333
 937,00;   -2,332;    0,621; 9968,240
 938,00;    4,224;    3,722; 9160,350
 939,00;    2,376;   -1,002; 8456,071
 940,00;  -10,972;    6,402; 7698,365
 941,00;   -1,779;    1,931; 7372,742
 942,00;    0,568;    4,238; 7012,068
 943,00;   -8,797;    3,338; 6750,658
 944,00;   -7,126;    6,158; 6704,312
 945,00;   -5,195;    3,383; 6645,972
 946,00;    0,772;    1,673; 6750,353
 947,00;   -2,089;    2,045; 6684,124
 948,00;    3,129;    3,077; 6859,087
 949,00;   -2,054;   -0,724; 6905,299
 950,00;    0,913;    4,303; 6970,891
 951,00;    0,417;    3,734; 7242,058
 952,00;   -2,919;    1,565; 7155,168
 953,00;    1,792;    1,470; 7528,332
 954,00;   -4,788;    3,194; 7534,413
 955,00;   -5,542;    4,253; 7624,742
 956,00;    5,210;   -3,211; 7670,394
 957,00;   -5,314;    6,497; 7760,754
 958,00;    3,653;    2,368; 7982,426
 959,00;   12,405;   -0,842; 7792,457
 960,00;   -2,550;    1,568; 7892,791
 961,00;    1,870;    3,466; 7960,323
 962,00;    5,097;    3,733; 8009,871
 963,00;   15,163;   -1,271; 8056,483
 964,00;   -5,779;    2,504; 7940,252
 965,00;    7,066;    0,979; 8034,092
 966,00;    1,669;    5,138; 7920,691
 967,00;    0,573;    4,504; 7920,096
 968,00;    1,524;    1,336; 7911,080
 969,00;   -4,917;    3,643; 7810,097
 970,00;   10,622;    4,112; 7812,516
 971,00;   -7,795;    0,975; 7822,167
 972,00;   -0,315;    2,244; 7703,449
 973,00;   -2,543;    3,829; 7741,144
 974,00;    0,355;    3,528; 7606,739
 975,00;   -4,169;    9,840; 7616,591
 976,00;    4,436;    3,540; 7491,415
 977,00;    3,494;    1,158; 7433,090
 978,00;   -1,681;    3,851; 7390,934
 979,00;   -7,722;    5,284; 7234,839
 980,00;    7,367;    3,377; 7221,538
 981,00;   10,081;    4,103; 7101,498
 982,00;   -8,362;    5,376; 7030,563
 983,00;  -10,306;    0,185; 6964,459
 984,00;    5,817;    1,903; 6791,681
 985,00;    3,853;   -0,735; 6884,786
 986,00;   -6,940;    3,984; 6535,673
 987,00;    3,026;    4,619; 6531,601
 988,00;    2,989;    7,786; 6458,635
 989,00;   -4,825;    3,408; 6330,281
 990,00;    8,209;    7,383; 6200,638
 991,00;   -3,085;    3,803; 6044,263
 992,00;    2,934;    4,066; 5979,043
 993,00;    1,665;    2,968; 5879,213
 994,00;   -9,976;    2,697; 5837,352
 995,00;   10,725;    4,746; 5672,640
 996,00;    4,456;    4,696; 5479,321
 997,00;   -3,000;    4,116; 5421,606
 998,00;   -1,759;    2,840; 5304,811
 999,00;   -3,931;   -2,846; 5076,878
1000,00;   -9,004;   -0,401; 5073,507
1001,00;    2,001;    2,413; 4934,566
1002,00;   -4,641;    2,721; 4771,740
1003,00;    1,440;    3,193; 4659,475
1004,00;   -4,064;    3,318; 4567,170
1005,00;   -2,079;    2,971; 4448,672
1006,00;  -10,501;    6,215; 4290,081
1007,00;    4,903;    3,138; 4197,557
1008,00;   -4,168;    2,955; 4092,298
1009,00;  -11,326;    5,693; 3950,825
1010,00;   -8,011;    3,239; 3976,646
1011,00;  -13,485;    4,341; 3852,594
1012,00;   -4,266;    4,219; 3822,411
1013,00;    1,438;    3,989; 3796,641
1014,00;  -14,306;    1,826; 3774,270
1015,00;    2,643;    5,844; 3813,325
1016,00;    4,192;    6,027; 3750,420
1017,00;    7,922;    2,137; 3730,661
1018,00;   -0,689;    0,792; 3654,573
1019,00;   -0,970;    0,720; 3574,519
1020,00;   -5,954;    6,298; 3499,290
1021,00;    2,575;    7,873; 3310,743
1022,00;    1,033;    4,791; 3253,565
1023,00;   -3,256;    2,559; 3145,936
1024,00;    1,022;    1,850; 3073,108
1025,00;    0,454;    0,314; 2982,295
1026,00;    4,648;    0,408; 2842,767
1027,00;   -1,039;    3,243; 2770,938
1028,00;   -5,009;    3,014; 2630,616
1029,00;   -2,203;    4,191; 2552,565
1030,00;    2,342;    3,906; 2458,928
1031,00;   -3,570;    2,348; 2376,469
1032,00;    5,558;   -0,189; 2339,266
1033,00;    3,058;    1,268; 2230,116
1034,00;  -10,315;    9,510; 2165,551
1035,00;    0,493;    1,348; 2093,223
1036,00;   -0,906;    3,156; 2021,790
1037,00;  -10,665;    1,820; 1948,954
1038,00;   -8,841;    3,195; 1904,856
1039,00;   -4,616;    0,630; 1843,503
1040,00;   -2,476;    0,761; 1762,364
1041,00;   -6,487;    2,140; 1731,450
1042,00;    3,889;    4,696; 1670,515
1043,00;   -4,945;    3,250; 1609,635
1044,00;    2,873;    6,727; 1568,765
1045,00;    1,636;    5,127; 1523,020
1046,00;   -6,332;    6,818; 1478,453
1047,00;   -0,170;    1,683; 1429,356
1048,00;   -0,042;    5,404; 1394,443
1049,00;   -1,890;    4,401; 1342,936
1050,00;   -6,213;    2,565; 1315,683
1051,00;   -0,194;    2,439; 1277,001
1052,00;   -2,077;    4,119; 1231,814
1053,00;   -5,986;    5,556; 1222,191
1054,00;    1,479;    4,484; 1197,243
1055,00;   -6,094;   -7,048; 1156,731
1056,00;    1,507;   23,212; 1136,129
1057,00;  -11,372;    1,466; 1075,188
1058,00;    9,269;    1,519; 1064,890
1059,00;   -4,436;   -1,981; 1025,328
1060,00;   -7,121;    4,271;  991,931
1061,00;    6,381;    4,827;  969,708
1062,00;   -4,819;    5,977;  948,920
1063,00;    0,791;    5,065;  912,247
1064,00;    1,621;    6,614;  896,884
1065,00;    0,880;    2,581;  859,071
1066,00;    1,196;    3,721;  850,201
1067,00;    4,996;    1,855;  833,671
1068,00;   -1,224;    4,291;  803,982
1069,00;   -2,739;    0,971;  800,529
1070,00;  -12,210;   -6,648;  781,254
1071,00;    7,045;    0,465;  784,165
1072,00;   -7,819;    1,958;  755,231
1073,00;  -12,484;   -1,788;  743,175
1074,00;    4,720;    9,582;  722,567
1075,00;   -2,949;    4,458;  707,139
1076,00;    2,367;    5,820;  694,732
1077,00;    2,067;   -1,830;  672,129
1078,00;    4,941;    7,273;  667,702
1079,00;   10,762;    9,890;  658,769
1080,00;   -9,064;    0,934;  642,278
1081,00;    1,997;    3,234;  627,163
1082,00;   -4,451;    5,023;  601,046
1083,00;   -3,883;    1,785;  571,290
1084,00;    9,981;    0,679;  605,954
1085,00;   -1,493;    3,167;  585,327
1086,00;   -0,578;    2,699;  555,308
1087,00;   -5,000;    3,714;  557,223
1088,00;    1,780;    5,041;  527,679
1089,00;   -3,242;    1,571;  504,374
1090,00;    0,441;    1,848;  495,711
1091,00;   -2,259;   -2,199;  496,580
1092,00;   -2,308;    8,707;  484,457
1093,00;   -1,610;    4,808;  462,186
1094,00;    2,598;    2,264;  452,215
1095,00;    3,506;    3,360;  435,345
1096,00;   -1,327;    3,219;  424,386
1097,00;    9,230;    3,403;  414,662
1098,00;   -0,364;    0,315;  403,777
1099,00;   Not Available
1100,00;   Not Available

